,67,-36,7,-5,12,19,-1,-49
,-128,-38,-10,25,-32,-11,54,70
,75,63,8,24,24,2,-103,-72
,-81,-90,-48,-75,-27,-17,67,1
,-3,-55,-6,-10,-11,-1,-35,-23
,72,93,54,28,19,13,28,1
,115,-12,8,9,12,4,-17,31
,22,8,-25,-41,-21,-3,6,-21
,-9,127,19,73,19,-6,-17,-48
,-34,-128,-33,-81,-22,-10,41,-7
,-20,68,-5,0,-12,-3,-7,38
,2,-128,-4,-3,21,-3,-8,22
,87,48,-9,-16,29,9,7,26
,-14,-46,2,13,-1,-5,-38,-3
,-38,88,-4,-10,16,-10,10,-50
,59,2,10,7,-32,-7,23,25
,16,33,36,68,-24,-1,8,15
,-11,53,-56,-104,26,-1,-36,4
,-107,-89,27,74,-6,-1,4,-15
,87,-5,-39,-20,4,14,13,-16
,-14,58,11,-42,-31,-27,38,48
,13,1,-12,21,2,8,-34,-54
,-78,89,8,-1,-5,-4,2,63
,-105,-88,16,38,29,17,8,-21
,-1,-24,-11,12,-4,-3,-26,9
,99,95,45,62,-6,4,-8,17
,15,-39,-62,-56,-10,-4,4,-29
,-69,-39,-2,28,10,-17,-22,4
,-86,-19,0,-51,-18,-6,-70,-48
,-62,-85,-6,7,-30,-21,2,-2
,68,-40,1,16,30,8,47,42
,39,76,-4,5,8,21,2,23
,21,-18,15,-2,12,4,-11,-33
,127,61,11,4,5,0,24,1
,28,-82,-21,-54,-28,-20,-55,-24
,-13,77,28,40,-41,-14,-3,-11
,39,28,-24,-9,34,14,93,83
,77,-26,-13,10,0,-8,-54,-14
,111,96,11,-40,-4,6,21,30
,46,10,23,-8,-2,-1,-33,-17
,-1,-2,14,29,-15,-16,-3,-1
,-10,-53,-13,-49,12,10,29,26
,-30,-13,-15,40,9,9,-19,-27
,-40,72,6,-21,4,0,12,6
,-43,-27,60,40,-24,-4,-38,-15
,-33,-2,-41,-20,32,14,-3,13
,50,12,30,-1,-17,-9,-30,-42
,-41,43,-30,39,5,5,52,60
,38,-87,-30,-38,5,-3,3,-21
,-41,-38,7,-1,-27,-23,-33,17
,17,-47,-15,12,0,1,-5,-10
,-45,-14,15,-23,2,-1,-43,-58
,-14,76,10,14,2,10,74,38
,-22,26,7,11,-33,-9,-53,-55
,-128,-28,-4,-14,16,-2,23,80
,77,-106,-18,-16,7,3,-2,2
,60,-13,-1,-7,18,-3,26,-24
,-64,45,-5,8,-3,10,-14,21
,24,45,-11,-38,-23,-6,-5,-15
,76,103,36,11,-8,-8,21,15
,-77,-128,-41,12,10,-4,3,8
,48,96,-3,-9,3,5,13,-4
,-32,14,5,16,4,2,-8,-27
,106,65,7,-17,6,7,-71,-31
,-37,23,-14,11,-6,-16,-1,-15
,-34,11,29,39,13,-1,69,1
,-105,20,3,3,-6,9,22,34
,81,-55,-21,-20,-21,-4,-18,11
,62,114,-12,-27,1,0,3,-8
,18,-109,26,35,-9,2,14,-16
,90,54,-14,-29,-1,8,-10,26
,-115,-109,-1,40,6,-7,19,-28
,29,-46,-38,-30,-4,-5,-39,-9
,109,17,16,23,12,-9,16,39
,91,-32,17,23,-5,3,-15,-18
,-3,-3,33,39,-11,2,-15,-27
,89,-62,-67,-75,13,11,37,41
,61,89,31,42,-11,-1,-21,-43
,-120,-9,11,-93,-5,-15,-4,1
,74,-24,-8,58,11,11,2,2
,-89,55,21,29,13,3,-1,13
,-48,-25,-15,-30,-1,8,50,-10
,26,2,-2,35,5,1,30,-18
,-50,48,11,-29,-16,-10,23,15
,47,41,31,9,18,30,-9,4
,-8,30,-17,-19,-30,-36,-19,-33
,-13,-81,-6,4,-10,2,15,-5
,-25,-101,-26,-9,15,-6,-3,4
,-2,19,12,17,4,2,-10,-20
,-31,78,13,-35,-24,3,17,27
,34,9,1,23,37,-6,25,-22
,2,64,34,-32,-30,-17,-64,9
,-112,-97,-15,40,-15,-1,-3,-20
,70,-14,-11,15,41,1,10,43
,-83,-13,-3,30,-4,-1,-49,-49
,77,53,-12,-23,10,-9,28,20
,-30,6,23,21,-25,0,13,32
,-36,-98,-33,-55,-2,6,13,-30
,119,37,15,57,19,10,-12,2
,-47,3,-52,-63,-2,-10,92,-23
,123,68,1,-9,-13,-9,-123,-20
,80,-59,2,-2,2,6,32,31
,6,22,8,27,-6,-1,-50,-4
,-11,78,-20,-74,-29,-4,3,-14
,-87,-29,57,104,20,3,78,-31
,76,40,-90,-87,11,5,-28,56
,-59,28,10,-19,5,12,27,6
,51,-6,76,78,11,18,-35,3
,78,42,-71,-82,7,-9,-15,-7
,-45,11,69,46,-6,-3,-113,-33
,87,31,-24,-42,-16,-7,-19,49
,-29,-41,-61,8,-3,1,28,14
,85,-21,26,-1,3,-8,114,-26
,-86,-72,14,74,3,-1,11,-25
,94,78,-6,-61,-36,-30,-75,-12
,-66,-79,20,-13,31,17,37,-3
,72,15,8,-2,20,7,104,64
,-2,67,4,17,-3,-1,-41,-50
,-36,35,38,19,-3,-8,-73,-30
,-23,-51,-84,-12,-19,-2,82,0
,-118,18,21,41,8,-4,-56,45
,56,59,18,-21,2,-8,42,24
,7,36,-10,4,4,15,17,18
,32,27,13,27,28,-7,-84,-48
,-113,-7,-26,-8,-26,3,3,2
,-50,18,23,5,-1,-2,9,-15
,6,-63,-9,-7,-42,-10,4,76
,93,-32,-39,-44,22,-8,-13,-13
,-12,-35,1,-15,-5,13,41,-10
,60,-1,8,18,9,-6,-80,17
,66,-60,-10,2,10,2,49,-13
,-12,19,27,35,-10,1,2,28
,127,62,16,-34,-18,-19,-98,11
,-77,-97,-30,-27,-31,-2,54,-23
,-112,-39,41,57,32,3,-13,-44
,-44,-37,-30,46,5,10,-28,-2
,90,37,-19,-67,-12,2,5,21
,-95,9,26,42,6,-6,107,23
,-22,23,-30,-60,-15,-7,26,-43
,90,61,50,29,2,-1,-13,-23
,67,-17,-36,-10,5,5,47,26
,69,24,-2,-24,2,0,-13,19
,-24,21,-21,-11,1,-5,-5,-17
,-51,34,21,15,7,-8,-1,10
,-80,-34,2,25,-32,-3,36,-45
,96,37,40,4,26,10,-3,14
,-29,-95,-32,-24,2,7,48,10
,-23,-15,-5,-4,0,8,30,-19
,21,7,8,-16,21,-3,-70,-17
,28,4,-29,32,-25,-4,38,9
,55,45,34,13,5,-3,-22,-40
,-10,23,8,-40,-28,1,40,17
,-47,-110,-5,21,11,-22,-55,-21
,-34,25,-53,23,36,31,10,2
,76,9,13,-19,7,6,-2,9
,-13,-2,23,32,5,-2,-77,21
,-32,-21,1,-53,-25,-20,-28,-49
,17,-21,-13,-17,-10,-8,-58,-5
,-15,-8,3,33,-2,-2,18,43
,63,101,19,-23,-15,2,-78,-7
,-117,8,8,30,1,9,59,27
,-31,-58,-26,-14,5,-6,-49,-29
,71,70,-11,8,5,5,24,4
,41,20,-2,4,4,3,75,33
,-36,-22,4,-3,-15,-7,-24,18
,93,26,0,-30,-5,-9,-41,0
,-58,-48,11,-1,-25,1,-15,-80
,-43,16,-15,22,9,-9,66,87
,33,36,-18,-8,26,13,-27,8
,-81,-9,47,43,-14,3,14,2
,3,-20,-77,-74,40,1,-3,-2
,40,9,19,-37,-3,0,34,-28
,-54,29,28,-8,-48,1,-8,4
,-63,-23,1,37,26,5,55,-1
,-39,-5,19,35,-3,9,-48,-14
,70,19,-9,18,1,-4,20,20
,24,-60,-52,-11,19,-4,-76,2
,121,72,16,-48,-55,-11,30,-22
,-93,-17,-6,6,4,-4,1,8
,-7,-43,14,-9,15,8,-30,11
,-8,80,4,8,5,-9,-2,-48
,-35,-99,-10,-8,-13,-10,39,7
,77,19,15,16,10,2,3,13
,-3,0,-16,3,0,-1,-12,-10
,67,24,24,12,-20,-9,-54,-21
,-21,36,-49,-32,38,21,41,29
,-54,-43,8,-8,-48,-14,5,23
,-28,17,19,28,24,2,-55,-41
,-70,-5,3,-5,-12,9,91,36
,45,-12,18,-26,3,-11,-54,1
,121,61,-29,19,16,-1,29,22
,-119,-45,-9,-36,-20,-7,-31,-13
,-26,-36,4,38,6,1,-9,-14
,-37,31,35,-20,-24,-1,5,-18
,67,3,-11,8,8,1,-38,14
,-17,68,4,8,22,6,-61,-32
,25,-85,1,-9,11,1,67,17
,0,41,20,4,-9,-8,-52,25
,-29,-4,6,21,-7,-19,57,-10
,29,-19,-11,-15,-28,-3,-1,-2
,45,17,-32,-37,-4,10,27,-20
,35,45,7,22,32,-1,-66,-21
,-90,-74,14,-20,17,3,14,15
,30,-23,8,64,-35,-3,13,0
,-31,62,5,-11,15,1,-28,34
,-67,-61,-24,-24,-1,-7,47,-48
,34,27,-18,-6,-14,0,-70,-21
,-6,-44,14,39,1,4,76,44
,127,28,10,-16,-5,1,-66,-5
,-47,13,4,18,10,22,43,-9
,-111,-3,-3,7,17,-6,-1,12
,-39,-21,11,-29,-17,-15,-36,-38
,51,-31,-23,37,20,4,33,43
,-12,-42,10,56,-14,-2,-48,-55
,28,-27,-33,-47,8,-1,41,22
,-15,1,30,50,-2,-4,-58,-41
,-37,73,-10,-20,9,2,23,20
,81,-6,-13,28,-4,3,25,34
,-24,-37,14,7,-16,2,-25,-20
,23,20,-39,-62,-2,2,98,15
,7,4,19,3,9,3,-44,-23
,-31,24,-3,19,13,-7,-20,-11
,87,-6,16,22,-12,0,-4,15
,-44,3,-22,-49,-15,-6,-12,-25
,-22,-10,-4,-9,-22,-9,35,13
,36,8,-19,-15,6,-2,15,29
,5,39,-6,-9,9,8,37,13
,43,18,35,27,5,-7,-45,-55
,6,16,-31,-40,-17,8,29,40
,-72,-78,-22,-24,-22,-11,-87,-21
,-42,46,24,15,25,5,66,13
,19,-28,-29,-13,31,5,-40,27
,8,62,36,53,-12,-9,-55,-50
,-1,-34,-29,-45,-1,-4,56,11
,-6,19,36,35,-19,2,-60,-28
,0,-17,-40,-52,-5,-3,5,6
,34,13,32,29,22,4,89,26
,-98,4,-12,8,1,6,-56,-7
,56,-46,18,17,-23,-8,-7,-6
,-37,11,-28,-32,29,16,68,32
,3,-13,-5,-6,-9,-11,-117,-1
,88,48,36,23,-8,-12,-14,-39
,-33,-6,-36,-50,-17,-9,18,22
,-10,23,18,34,6,9,26,28
,-52,-63,-8,0,-17,-5,-12,-37
,-5,41,5,-50,-13,3,69,21
,25,-12,3,23,7,5,-115,-25
,-28,-35,-11,12,17,-10,89,11
,-1,-40,1,21,9,5,-45,-16
,24,25,7,-34,-2,2,37,-2
,6,27,1,24,1,-3,46,0
,2,38,-27,-66,-27,-3,-26,-4
,32,-7,22,74,17,-3,-60,-26
,26,0,20,-8,-5,0,28,22
,-5,56,-21,-64,29,10,1,-10
,17,-23,29,58,-22,-2,-49,12
,6,-13,-20,-69,18,-1,33,-35
,58,-4,-5,28,-7,1,-67,5
,5,12,12,-12,-13,-8,5,6
,14,20,4,-10,20,9,-25,-16
,60,9,-6,29,-18,-13,27,63
,-49,-61,-12,18,23,5,74,-16
,112,60,-6,-16,-37,-3,-37,-20
,-90,-27,24,-14,17,8,50,9
,-31,-39,-58,-46,-6,4,24,-4
,91,50,7,13,28,2,-17,13
,10,24,27,32,-13,-11,-7,6
,60,-17,-36,-1,-19,-3,-36,-11
,-99,13,5,-20,-4,3,32,0
,6,-9,16,-17,5,-2,-43,-21
,-42,-27,-14,43,0,-2,44,22
,19,1,-5,12,12,-1,-18,-4
,-42,-3,16,24,18,3,0,-25
,5,31,3,-1,-21,-7,-43,-8
,-26,-43,16,-22,2,-9,31,24
,22,-21,-16,-18,-3,1,-32,16
,12,-7,5,8,-32,-17,10,-4
,17,26,-15,-35,5,7,47,11
,-13,8,10,30,15,7,12,-2
,-52,-63,7,3,19,-2,45,-26
,87,18,10,-4,-10,10,-13,38
,-68,-10,9,-36,3,1,2,-32
,37,-13,-16,49,2,-8,49,28
,-40,-9,-20,-18,-46,-4,29,27
,21,-24,0,3,23,-1,-64,-26
,-38,40,7,-24,-10,-5,8,24
,-13,-27,7,20,4,4,-4,-55
,-41,32,5,6,16,0,-22,-18
,-13,-23,-2,-30,-3,-5,20,6
,-18,-10,-20,20,-10,3,9,14
,-52,-34,-1,-45,7,-1,-86,-18
,81,52,31,5,0,-3,21,29
,-101,-40,-2,16,9,-3,-43,-53
,38,-22,-14,18,-9,6,13,-6
,25,27,12,-51,-8,2,18,35
,9,-28,-9,61,-25,-20,-44,16
,45,87,4,-23,15,16,70,8
,-20,9,5,4,17,-9,-19,-23
,-45,-30,-9,59,-8,-1,-8,-6
,39,3,0,-39,-17,0,-76,-42
,46,-12,1,-21,-15,-11,40,42
,20,-38,-18,5,11,2,-35,-10
,12,12,-20,-22,26,14,34,15
,-12,28,39,2,-3,4,7,-20
,-2,-11,-1,4,-19,-11,-37,-22
,-15,40,6,22,-10,-7,-45,34
,-7,-24,-8,-23,-11,-9,-9,4
,32,14,11,21,0,12,22,14
,-35,-17,-6,52,27,11,43,-11
,47,17,0,-25,3,-3,1,-2
,-5,8,2,27,-27,-12,-32,-37
,41,-8,-24,-36,5,-1,14,30
,-55,-1,9,-15,-18,-7,9,-6
,25,13,-28,8,0,10,68,16
,-8,-4,2,-20,20,2,-47,3
,35,14,1,21,-13,-9,36,-32
,4,-11,1,-43,-15,-10,-89,0
,-96,-27,14,73,34,12,48,30
,47,-14,5,-35,17,1,-38,-22
,-20,26,7,30,18,7,9,-4
,-48,-29,-20,-3,-13,-5,27,29
,-48,-3,35,32,-18,1,-39,-26
,-23,0,-11,-6,2,-7,32,5
,6,-17,-14,6,8,-4,-26,-5
,7,33,-22,-33,10,13,-4,-28
,61,-15,-8,-8,-4,-9,-7,-8
,26,9,6,16,9,-2,43,26
,-35,-18,-9,-36,-35,-6,-18,-1
,-4,-19,12,29,1,6,1,-12
,70,-8,-10,7,11,6,-22,-8
,-54,-27,-1,12,11,2,38,19
,-30,-7,0,-17,1,-16,-19,-12
,65,13,8,-8,-31,-2,86,42
,-40,21,-2,-29,-8,-3,-83,-10
,36,-1,16,10,-9,2,-26,-29
,9,-12,-8,-36,1,-1,56,33
,23,24,31,61,-5,0,10,4
,13,-20,-57,-64,20,-4,56,8
,-5,24,-2,-3,-13,13,-6,4
,35,-10,9,49,27,8,-17,-7
,-30,3,11,-20,-5,-10,-27,-17
,20,18,29,27,-34,-10,4,2
,-19,22,-19,-53,-14,3,48,18
,22,-44,10,26,11,1,-31,-12
,-22,-1,7,24,23,-4,-11,-18
,1,-21,-25,-10,-7,-7,-26,1
,-16,-20,-12,-25,-18,-2,42,37
,16,36,33,53,-5,3,23,21
,23,27,-23,-56,18,7,-13,-25
,-38,-12,8,18,5,-3,11,-4
,35,-3,1,67,5,2,-42,-10
,15,-16,-18,-39,3,1,18,31
,-3,0,10,39,-5,-1,3,-1
,6,-5,15,9,15,-3,0,-28
,52,-11,-12,-25,-17,11,-32,-9
,-97,29,25,-11,5,-7,-16,-11
,-44,-33,-17,8,6,3,-1,-21
,37,-14,2,-16,-26,-8,20,19
,38,44,25,0,10,-5,31,2
,-66,-15,-25,-16,-9,1,-14,-3
,76,-23,-13,-10,7,6,-22,32
,-71,5,22,30,9,4,16,-6
,-17,-43,-20,-6,16,3,44,8
,-12,20,4,-53,-15,-15,-53,-35
,-46,5,28,70,8,-3,-26,-22
,84,21,-1,-33,-12,2,-31,6
,-57,-17,-16,-8,4,4,5,-19
,-48,15,-2,4,25,-1,25,39
,-4,-3,-26,-53,-26,-7,9,-20
,-36,-33,2,3,-21,-4,-64,-29
,-53,6,3,-3,14,-13,5,24
,109,-6,23,24,-21,-1,11,2
,65,31,3,0,13,13,18,22
,-18,-36,-42,-13,24,2,42,13
,-56,8,-2,-13,-19,-2,-70,-38
,13,3,19,22,-5,2,4,-9
,-50,11,3,-8,-15,-6,-23,12
,23,25,3,2,-1,1,10,-14
,9,-40,-12,10,8,-3,16,6
,6,-24,-12,16,1,-7,-20,10
,22,36,12,-14,-37,4,-5,5
,22,30,31,7,44,7,35,9
,-24,-28,-4,13,1,-1,12,-19
,-13,-25,-29,-13,-7,2,9,-11
,35,0,9,10,-1,-9,-8,-32
,-35,-32,-2,-25,-24,-4,-54,24
,71,55,2,-7,3,-3,-5,5
,-1,-26,-26,0,-1,3,-15,-20
,-15,11,-4,-6,11,3,36,41
,10,-7,44,-1,-22,-8,5,-3
,30,10,-25,0,12,-3,-4,7
,-9,4,-40,-42,9,7,63,2
,-36,6,14,2,9,-6,-80,-16
,11,-29,-22,-14,17,10,43,21
,-6,6,9,26,-20,-7,-11,-2
,37,-1,4,-10,-18,-8,-16,-19
,1,34,20,14,30,1,4,2
,-33,-60,-13,22,0,13,21,5
,12,9,10,-23,-13,-1,-29,-2
,15,-52,-17,32,11,-3,43,36
,40,38,-10,-31,10,-11,-4,-27
,-32,25,3,14,-21,-3,-14,4
,-5,40,22,18,6,3,-17,-42
,-28,9,31,-2,-8,2,4,0
,-30,-69,-65,-28,18,8,59,37
,-75,19,14,21,10,2,39,-4
,2,-39,-21,-36,-15,-4,-35,-6
,-13,53,32,-24,-20,-6,-68,-41
,0,-17,-13,51,12,-2,21,14
,82,37,14,-24,-29,-1,-26,-20
,-31,-27,-7,-6,16,-1,19,31
,50,16,-5,-5,24,4,2,-10
,-16,-17,9,-5,-13,14,53,8
,30,22,0,7,-9,-18,-39,3
,-27,16,16,32,-3,-2,1,-16
,26,-2,-13,-31,11,-2,-23,0
,-39,5,-11,-42,-19,1,31,8
,-12,-41,-17,42,11,2,-55,12
,-3,37,9,24,-10,-5,38,-7
,53,28,17,-14,13,6,13,21
,-20,-23,2,2,18,3,-28,-8
,-50,-18,9,-9,-50,-19,-3,-20
,-5,-3,-40,-46,16,7,30,4
,41,-16,3,30,-12,-4,-11,40
,-53,27,21,28,7,2,-8,-30
,4,41,5,6,6,0,15,10
,-50,-38,16,-34,9,9,1,0
,-36,-7,0,-24,-3,2,-1,-22
,75,-19,-17,19,-10,-20,-35,-4
,-11,18,-5,-4,-4,2,25,6
,9,22,5,24,-7,-3,51,-5
,29,-26,-3,4,0,-7,-46,2
,-6,3,-1,-47,-18,-3,-8,-8
,0,4,4,33,19,8,-23,-21
,28,9,-18,-39,-6,1,18,21
,-42,15,-1,8,3,-1,48,20
,41,-12,29,34,-4,5,-43,-36
,23,21,-28,-21,-12,-23,28,18
,19,-11,22,4,21,14,-39,-27
,-66,11,-28,7,3,3,67,3
,127,23,6,25,11,5,-78,36
,-43,14,20,-23,17,0,29,11
,-34,-87,-13,27,-24,-5,-24,-27
,8,6,2,-3,-36,-11,-4,-13
,-10,-5,-4,-26,-1,-8,11,-11
,43,23,6,-16,21,10,-11,-22
,2,28,3,16,8,-9,-14,35
,-18,-14,18,-26,-3,8,-8,13
,-16,-2,-21,13,-14,-5,2,-37
,95,29,15,53,30,4,22,48
,-103,7,3,9,-19,-7,-18,0
,-25,-43,6,18,-9,-8,6,-28
,-35,29,-9,6,-15,0,-62,-16
,14,-49,-62,-56,29,13,18,29
,43,5,23,9,-1,1,25,-13
,26,32,-12,23,8,0,0,22
,-22,-1,15,-11,1,-11,25,0
,-24,12,9,28,-20,8,-7,-30
,41,-28,-38,-63,-9,-1,-1,5
,-65,1,-2,11,4,-12,-68,-22
,36,-17,6,15,7,4,44,22
,-86,-7,-14,-17,3,-4,-2,-15
,59,-30,10,18,-37,-4,49,12
,-39,32,-1,17,35,4,-43,-35
,-65,-7,2,-3,7,10,39,32
,29,-32,-9,-1,-12,-7,-40,-29
,-9,16,0,16,7,-7,-28,-3
,26,-34,11,-22,-37,1,49,41
,-4,4,-38,-31,8,0,-10,-20
,3,-11,-1,8,13,11,8,-10
,1,-17,5,-8,-10,-11,-2,-9
,64,47,18,-8,3,0,-3,24
,41,-30,-13,-17,-6,-2,5,1
,-39,-22,13,18,-7,9,5,5
,33,14,12,31,23,-5,10,-23
,-18,-13,-10,6,23,1,-74,-9
,-5,-1,-5,-39,-46,-8,19,22
,25,-16,-8,-10,-10,-10,16,3
,-4,36,6,-16,5,-5,-42,17
,46,36,14,8,7,11,63,18
,-64,-38,13,-3,-2,-12,-23,-47
,6,2,-16,-17,0,-1,9,18
,-10,28,1,10,-1,7,-42,-19
,-4,-13,-9,-13,17,0,30,2
,74,-5,14,33,-22,8,20,20
,-46,-21,-3,-48,-10,-7,5,-6
,28,-8,4,18,17,0,-15,-16
,-3,26,-11,-6,2,-2,6,-7
,-18,-4,28,33,6,4,15,17
,22,4,-20,-40,-15,-8,-7,-6
,-3,24,0,-8,10,18,30,13
,11,-34,-8,-4,1,-10,-71,-43
,-17,16,7,34,18,0,27,36
,2,16,-2,-29,-19,-4,3,3
,-20,-3,-5,-16,7,-8,-45,-13
,-54,-18,11,1,-36,3,28,-11
,15,15,-21,-6,21,0,6,3
,-13,-23,26,54,18,0,-14,-23
,-37,11,-43,-65,-19,-8,-25,2
,78,-22,2,61,-30,-5,-1,9
,-47,36,7,-40,13,7,2,-6
,12,14,6,-17,15,-4,-48,-19
,-14,-5,17,63,20,-3,66,37
,-53,-3,-32,-15,3,12,29,3
,-50,-79,12,9,-13,-2,-4,-15
,108,34,-27,-39,-19,-11,3,-1
,-67,-45,4,-9,-12,2,-45,-4
,22,52,-20,-1,-4,-22,-2,9
,42,-15,0,10,2,18,26,9
,-40,5,24,10,13,1,-3,-21
,47,-26,-6,-2,-18,1,-31,-4
,-70,22,3,-9,20,2,19,-11
,13,-15,-12,-3,6,-10,-31,-9
,5,-2,49,44,-24,-11,10,27
,49,36,-71,-57,11,4,15,4
,-12,-35,34,27,3,6,-8,-5
,14,3,-37,-80,-11,-19,-38,-29
,-21,9,14,32,9,8,17,27
,-16,25,26,21,-15,1,39,-9
,85,-12,-11,-9,7,-4,-10,6
,-56,9,-6,33,17,1,5,-3
,34,5,4,2,-21,0,-54,-5
,-46,-23,0,-3,9,-3,34,-4
,-13,26,2,-9,12,4,-25,-4
,-36,-5,19,-19,-46,-3,10,21
,-8,-10,-22,42,11,-9,-14,-24
,48,7,21,4,3,8,64,51
,-24,-30,13,3,14,3,-43,-29
,21,31,1,7,-4,-7,-6,-8
,-27,-12,-30,-16,26,9,23,6
,-3,24,20,15,-11,-2,-12,-15
,-33,-35,6,9,-10,4,18,4
,24,49,6,-30,4,-10,56,16
,-3,-12,-11,12,-31,3,-66,-29
,68,1,2,0,25,0,6,25
,-66,-31,-18,-30,9,0,3,-11
,17,-2,6,12,-7,2,-2,-1
,-3,13,8,5,-7,-2,19,9
,6,0,-2,-14,-22,-8,-16,-3
,15,28,14,-17,21,10,-5,-19
,14,3,-13,31,8,-2,-5,-1
,-31,-23,-4,-50,3,-3,-27,0
,-9,-14,9,39,-6,2,-17,-34
,-11,7,-16,2,-12,-8,60,70
,26,19,20,-5,4,-5,-25,-22
,11,54,5,22,-12,1,36,8
,-23,-27,-2,-30,-8,1,-9,-5
,-34,13,-1,23,5,-4,12,-35
,16,-34,-2,19,4,0,-99,-66
,35,-14,-16,0,14,-4,91,81
,-46,7,-9,-1,-9,3,-16,-3
,-23,-24,13,-27,-21,2,15,1
,68,32,-10,46,39,11,17,17
,-41,4,-6,-42,0,3,1,-33
,39,-6,10,19,-4,-15,-30,6
,72,29,-14,3,1,5,12,19
,-66,9,7,18,-23,3,-3,-15
,-6,-33,25,23,10,5,-49,-9
,-29,-3,-9,-7,35,3,18,-1
,23,-6,-4,-18,-62,-9,-50,-31
,-19,-18,3,76,17,-14,19,39
,-49,-71,-17,-66,11,-7,5,-1
,17,30,20,1,-34,10,-5,-6
,28,39,9,1,5,-4,-6,9
,65,-23,-12,-31,17,1,-7,0
,3,5,7,7,-16,0,49,-6
,-15,-18,-16,11,-13,-16,-25,15
,-1,56,-27,-58,7,3,-59,-22
,-71,-91,-2,31,-1,5,20,29
,44,53,3,19,33,7,50,-7
,-15,-19,-6,-27,-43,-21,-60,-28
,-2,10,10,11,2,-2,22,-1
,40,34,18,-52,3,9,25,14
,-50,-46,-38,5,16,3,-41,-19
,-1,12,-14,4,4,13,43,1
,16,-16,14,7,2,-7,-19,8
,32,26,3,-42,-13,-9,4,9
,6,18,13,-32,-14,-3,21,-14
,17,11,11,76,30,8,11,8
,-16,-39,-41,-22,-8,-9,-5,-2
,-15,-14,8,36,-12,-3,-8,-2
,16,3,-21,-25,8,2,-15,9
,-9,-13,6,-8,-2,8,27,14
,1,41,20,22,9,-2,-36,-24
,12,8,-27,-28,-17,-3,-2,-31
,-93,7,21,6,-5,-8,38,29
,-47,-46,-3,2,-23,8,-44,-21
,29,-51,2,-4,28,3,24,1
,-84,18,6,-4,4,9,9,5
,67,17,22,35,-13,-12,-4,-10
,35,34,-42,-68,7,2,3,18
,-30,-45,-1,15,-3,4,23,8
,-43,19,-13,-37,-9,-2,9,13
,-2,-4,21,50,-9,-2,-26,-8
,47,-4,-13,-15,3,-3,-3,-12
,2,57,20,-19,-7,-13,-20,-42
,21,-21,3,0,2,5,53,68
,28,7,3,26,-17,-2,-51,-3
,-4,13,-1,-4,17,10,37,11
,62,-31,-10,22,28,9,-2,2
,-46,48,-11,-41,-8,-2,-12,-32
,45,-42,-15,5,3,4,23,9
,-73,7,10,13,1,-10,-12,11
,-24,-7,3,1,-23,-6,7,-10
,24,-8,3,9,2,-7,-45,-19
,58,33,2,6,-18,2,23,24
,-24,-25,8,-3,25,-3,-16,-35
,16,17,-15,10,21,6,56,73
,3,-10,2,-3,-41,-10,-17,-40
,-1,15,-35,-50,-39,0,-15,-5
,100,-9,33,37,77,12,36,14
,-80,-27,-19,8,-15,9,15,-13
,46,2,13,27,29,-3,-71,3
,-19,-35,-13,24,6,3,36,1
,-6,22,-13,-45,-45,-13,-15,-9
,-33,-10,8,4,9,-3,36,17
,-29,-10,29,36,7,-4,-36,-3
,-42,0,-26,-78,-19,2,-11,-7
,-38,-22,-5,-20,-18,-11,-6,-4
,11,21,12,8,29,1,10,-8
,27,-5,-18,38,2,2,12,12
,58,27,24,-12,11,-8,-24,-33
,-67,-13,31,27,-34,8,-30,15
,11,-31,-45,-64,-13,-12,-20,15
,107,40,12,-16,-9,3,40,5
,-95,6,6,56,47,11,-17,8
,-20,-23,1,0,16,-6,22,-4
,72,28,22,18,-29,3,15,2
,-19,-4,1,-17,-9,-3,-44,-30
,80,19,-3,16,-9,0,5,22
,-38,2,-25,-14,-3,-5,8,-33
,-14,-58,10,26,-5,1,10,23
,-72,13,-19,-26,35,-6,58,17
,1,-33,0,10,-11,5,-55,-10
,14,34,17,8,-4,6,11,8
,11,5,-7,-7,-5,-11,-23,-29
,-6,-7,-27,29,9,9,26,6
,51,5,31,7,-17,0,-2,20
,-19,9,-33,-3,20,-5,18,-5
,53,43,11,-31,-16,1,-45,-11
,-73,-69,1,-5,8,3,3,-10
,-6,5,-3,17,15,-6,-22,-14
,-11,-7,-9,0,1,1,-18,-10
,5,19,-19,-19,-24,-11,12,29
,23,22,0,-22,-4,5,20,-6
,-32,-4,19,-9,17,8,16,9
,36,-29,4,59,22,-7,3,-20
,-19,35,28,47,-7,18,-4,10
,-3,23,-2,-24,-10,-9,-7,18
,-14,4,-27,-25,-18,-6,8,-11
,-10,-10,15,6,22,-4,-16,-14
,-23,-53,-12,1,5,-6,-28,-22
,31,19,3,15,-2,8,23,5
,13,-3,-6,-53,-10,-5,58,-26
,31,57,4,3,-26,-6,-59,46
,-69,-5,-4,26,36,16,57,15
,15,-7,8,-4,-9,-3,-21,-14
,-21,37,5,23,16,-3,-8,5
,-34,-54,-16,-21,-23,-8,40,-16
,0,0,9,-3,-16,-23,-25,-10
,-21,-54,-29,-35,-22,6,-2,1
,33,10,11,28,16,11,-25,-17
,48,43,18,28,25,8,-11,-22
,5,-3,-3,18,-11,-4,3,54
,42,-49,4,-6,16,-10,51,8
,-33,-25,4,-41,-20,-4,-57,-10
,-13,0,-18,-6,7,12,47,24
,35,15,11,-31,-8,-6,-40,-50
,40,-24,-40,2,8,4,-6,16
,-56,-49,0,8,-5,-9,4,-43
,94,20,39,7,-14,-5,35,66
,-56,40,-21,-33,10,4,-12,-36
,-25,-33,6,10,-14,-3,12,8
,75,46,-4,-13,-19,1,-39,4
,-103,-10,-12,-15,15,-15,1,0
,0,-60,-2,37,-8,14,5,-24
,8,39,36,23,10,1,-36,9
,25,1,-32,-7,24,8,56,51
,74,11,-5,-23,9,0,-40,-13
,32,19,11,11,-5,3,-5,8
,-26,15,11,3,-9,-11,-21,-27
,-28,-7,-6,3,16,6,14,-1
,-59,-35,-23,-29,-31,6,27,9
,71,-8,1,-5,18,-1,45,12
,-69,28,10,1,11,0,-52,-34
,-1,-13,2,6,-44,-4,2,-9
,-17,45,4,12,29,13,50,26
,-79,-22,3,-14,-17,-16,-16,-28
,1,-28,-14,26,-19,4,1,-10
,69,19,-3,-14,35,-16,-8,30
,104,7,-17,-5,-14,13,-36,-28
,-95,15,15,-4,3,-3,13,8
,-32,29,-3,-21,-6,-5,39,14
,-74,-39,1,-25,22,6,25,-16
,40,-30,-20,-28,-23,3,-26,4
,119,24,8,26,8,-1,41,1
,-76,46,25,41,1,-1,-44,-7
,11,-25,-24,23,-8,-1,9,0
,-32,59,23,-7,-10,-1,14,-11
,-42,-104,-22,-23,1,3,-30,20
,44,49,4,-7,0,-3,34,17
,31,1,19,17,2,-5,-22,-2
,-9,-38,-14,4,-14,-9,-35,-47
,121,81,-8,5,6,4,-9,49
,-67,-17,-22,-30,23,7,14,-12
,82,5,2,-30,-15,-10,-17,15
,-7,-70,8,15,0,-3,-4,0
,-74,2,3,14,3,-1,18,-34
,82,9,12,18,4,-4,-22,27
,-23,40,2,6,-26,8,17,-27
,-54,-5,-3,-19,11,-14,-22,-5
,-60,-17,5,5,5,15,-8,-8
,53,-10,4,-3,11,9,54,23
,-128,12,1,23,-51,-21,-7,-10
,76,8,4,-25,-3,0,11,16
,10,-55,-15,-29,16,-9,18,18
,-10,-48,-6,21,6,2,-37,-29
,26,33,12,-16,12,18,32,21
,60,18,18,59,7,3,-33,-37
,4,25,4,10,-41,-9,16,50
,39,6,-15,-41,8,7,-12,-32
,-76,10,-20,-14,3,-3,32,31
,45,-11,1,7,14,2,41,7
,18,-20,6,19,-16,5,-36,-23
,-37,-3,15,-4,-33,-30,-24,-1
,-20,-52,-25,-13,15,5,-16,10
,7,43,19,1,10,6,18,10
,76,41,2,1,20,1,2,-13
,-49,-3,-12,6,-10,1,-5,-10
,20,-27,9,-11,-8,0,-30,-32
,-24,12,30,32,-11,-7,22,26
,-48,25,-53,-34,17,5,-1,-22
,32,-35,-16,-22,3,-2,-15,8
,11,6,7,13,-3,-3,12,-22
,2,-25,-2,-32,-14,-2,-8,-14
,-44,-75,-15,-1,-4,-6,1,20
,115,48,-5,1,14,-2,14,-18
,-17,-27,-11,4,-44,-1,-23,0
,-105,28,-2,-67,37,6,-15,14
,59,-15,14,34,18,0,-27,-13
,23,18,-6,-10,-24,-11,28,4
,-22,-45,38,56,5,6,-10,-31
,-3,28,-43,-35,-5,-7,28,3
,12,37,13,-30,-3,4,-2,-23
,-111,-52,-17,-1,16,13,12,38
,51,32,15,-3,-13,-3,-18,-13
,-77,-109,-6,25,3,-6,-16,-22
,-3,28,14,0,1,0,10,21
,15,32,8,7,-13,5,76,9
,-20,-14,10,20,39,-2,-50,-2
,90,54,-1,-30,-20,1,6,32
,53,45,23,61,15,-5,-31,-35
,12,-53,-23,5,-12,-8,5,-15
,39,12,9,-11,11,-8,45,35
,10,-13,-19,-10,-13,6,-20,-12
,59,22,-18,-17,2,-17,5,-12
,-24,41,16,21,2,-2,-41,-7
,1,-25,-15,-60,-17,5,6,35
,5,91,29,33,14,-3,-10,27
,-35,-110,-9,11,-5,4,6,8
,-40,52,-23,-7,-2,3,-7,-15
,-42,-46,-9,23,11,-9,-38,-37
,-18,14,24,17,-31,-3,25,-13
,-88,21,-7,-23,-1,3,18,16
,58,6,30,-21,33,18,-27,-5
,76,27,-15,52,13,0,27,16
,-84,-32,-18,-25,-5,1,-3,-12
,10,4,14,1,-23,-13,-7,-7
,17,-72,-30,-56,-27,-8,-23,-35
,14,62,11,-20,14,6,25,32
,-4,-10,-4,30,22,-12,3,-12
,-23,13,14,17,-56,5,-30,-9
,26,1,-36,-11,4,2,37,16
,-66,0,19,17,-1,-7,-2,11
,121,-8,-16,-1,14,-2,-9,-3
,-75,52,19,-17,28,18,24,12
,-62,-38,-9,22,14,-3,-38,-21
,-17,10,-14,2,-13,-7,20,-24
,7,3,12,12,-21,-3,-3,24
,-14,-18,19,-50,-13,-2,-18,-22
,58,-4,-1,-14,-19,-5,-3,15
,59,46,14,40,50,6,6,5
,-75,-54,-8,-2,-10,4,-14,9
,28,-52,-17,11,11,-2,30,6
,33,23,14,-28,-25,-4,16,35
,-19,-20,-18,9,-27,-8,-3,-16
,42,6,19,84,15,10,20,-7
,-22,30,-33,-35,42,1,-28,-16
,-23,-23,28,17,21,1,-3,-25
,23,21,-18,-59,-9,-2,-46,2
,26,-40,13,-10,-7,-8,83,37
,3,-36,-31,-16,-27,1,-29,-20
,46,50,5,43,-20,-9,7,42
,-34,-26,-8,-25,29,2,5,-12
,-40,34,-3,8,-7,-7,-66,-57
,5,0,11,-22,-15,8,68,22
,28,43,33,5,-11,4,27,19
,2,-12,0,14,27,11,-47,-23
,-60,-8,-5,1,6,-11,-16,14
,-65,-51,-4,-2,-4,-14,10,-9
,-52,18,-17,-27,-3,-5,-93,-25
,29,-2,26,25,-24,-8,31,31
,62,28,-6,-48,2,-2,-9,-15
,15,43,-3,37,-32,-6,-25,-33
,10,-41,35,5,22,4,12,27
,-3,43,-17,5,22,8,29,11
,-26,-18,-11,3,-22,1,-10,-14
,113,7,8,3,7,4,25,32
,-72,-12,4,-27,4,-5,-4,-57
,38,25,-9,10,-19,-5,3,30
,46,-17,10,-6,26,16,15,16
,-71,-46,-24,38,10,-13,22,0
,66,5,0,-12,-4,1,7,34
,-83,10,14,-55,-48,-11,-33,-44
,12,2,6,1,13,15,38,17
,30,-3,-4,-19,3,-11,-38,-19
,-24,-16,-23,54,8,-5,6,14
,-30,6,-3,9,4,-4,-20,-11
,51,9,9,21,-37,-10,10,-2
,35,-13,-48,-58,4,4,-10,16
,-27,-27,2,1,-2,1,-10,-6
,59,-50,-6,18,42,13,-8,-8
,-16,29,6,-35,-12,-5,34,3
,12,16,24,20,-9,3,-26,8
,79,-6,-19,-9,6,-14,-8,-32
,-82,6,18,43,-5,7,38,28
,11,-11,8,32,2,-5,-25,-20
,98,82,31,-12,15,6,34,20
,-105,-16,-3,-3,3,-7,-35,-9
,19,-65,-33,-32,-8,-6,12,-12
,-60,54,15,28,-20,-9,-70,-11
,-37,-11,-12,-19,-6,0,39,-15
,69,21,8,-23,-4,3,-16,25
,20,-7,15,75,-21,-2,-39,-35
,-11,17,-8,-15,-3,0,83,31
,-76,-27,18,31,32,-2,-41,-31
,-2,-31,-4,-17,-15,-1,21,-3
,23,-15,-6,-50,-5,8,28,18
,11,-8,3,-3,9,1,-28,-9
,-32,44,32,47,13,5,-51,-28
,52,7,-13,8,-11,1,16,1
,-90,27,30,-27,-1,-2,49,18
,3,-87,-26,39,-2,-4,-67,-9
,120,-14,-35,-26,12,2,5,22
,-79,20,15,22,-1,-4,-1,-13
,63,15,-1,-12,7,-9,-4,-12
,28,41,11,-44,-43,-4,0,-6
,-128,3,23,8,15,4,21,0
,18,20,-9,84,47,12,12,28
,-11,-31,-17,-38,12,-9,-16,1
,-10,-17,-4,-29,1,-1,1,-18
,13,-13,-1,-15,-54,0,-26,-4
,-1,4,-14,-62,11,7,21,8
,7,2,-16,26,12,-6,-10,12
,31,-17,-12,9,-16,-14,-3,7
,-2,22,16,15,4,6,-3,2
,-5,-20,-14,-28,3,13,0,-26
,28,2,-8,-11,-14,-15,12,-6
,-17,1,-29,-36,21,2,-16,8
,42,9,20,57,-12,-8,40,16
,-92,-14,7,-1,7,5,-24,-13
,28,-37,2,-8,-17,-1,20,19
,-61,15,17,42,14,4,-18,-44
,80,4,-31,-102,-4,-9,2,32
,45,21,32,88,0,-1,40,23
,-89,-31,-8,20,7,-8,-34,-35
,80,14,13,-5,6,6,-20,22
,-69,14,-27,-36,-12,0,-1,18
,72,-20,-6,-6,-3,-1,20,-14
,-36,-9,1,-15,15,5,-23,-1
,-46,-27,-10,7,12,-11,-6,-36
,44,-14,28,-18,-10,3,-13,19
,4,36,-11,19,-24,1,-5,22
,67,-1,-12,25,31,0,21,-15
,-72,-11,-15,2,6,6,19,4
,-20,0,-9,-6,-8,-13,-15,3
,34,5,-1,-23,-7,1,15,-40
,31,-15,-10,-34,-28,-6,-12,47
,56,20,-2,5,2,1,4,-7
,-15,24,19,39,-6,-3,-42,-20
,-96,-64,-10,-46,2,-4,39,20
,80,42,24,21,-6,8,-70,-43
,-85,7,-15,-58,5,6,40,41
,35,-30,8,114,39,11,24,-18
,-8,2,-6,-24,-22,-13,-22,-3
,-21,13,4,-4,-21,-3,5,-1
,42,29,21,9,26,15,15,4
,-35,-37,0,-5,2,-3,-34,-13
,5,8,-38,-7,1,-2,-3,-24
,30,28,-6,-38,-13,0,80,34
,-3,-4,11,8,3,-13,-61,0
,33,24,-15,5,7,-2,-2,-3
,-51,-3,38,15,-26,-10,-32,-16
,-80,7,-9,-8,18,12,69,33
,-57,5,-10,-65,-22,1,-15,-35
,66,-30,-29,32,-21,-14,19,28
,22,-3,-7,6,41,2,-25,7
,75,34,21,-20,-44,11,-34,-11
,-44,-2,-2,34,31,-10,22,-15
,-3,1,-11,-8,12,11,-33,-19
,-32,12,26,7,-6,13,70,23
,-78,-1,11,23,21,-14,-62,-24
,63,8,-15,-2,-34,-2,22,17
,-47,-42,7,-21,1,-11,7,-13
,2,23,-13,2,4,3,-18,3
,-22,-51,-6,14,2,2,5,4
,34,-4,-3,-20,-6,0,-4,-31
,-37,35,14,14,-4,5,34,12
,35,-9,0,-1,4,0,-12,4
,-15,-24,-21,-16,4,4,34,-5
,59,12,11,18,-11,-2,-11,5
,-29,-34,-7,-14,-8,2,42,16
,-4,-3,7,8,-20,-27,-29,-4
,35,-17,3,-17,-3,-10,4,-30
,-10,-23,-33,-27,1,15,34,16
,40,57,10,-13,8,7,-38,-3
,-44,-4,3,8,-10,-9,26,13
,-42,4,13,30,28,15,-22,-25
,28,21,38,24,9,5,2,15
,-62,-12,-19,-23,-19,-4,13,-6
,26,-40,-10,-16,22,7,-2,4
,31,43,8,-3,-22,-20,-20,-15
,7,-65,-32,3,1,0,16,32
,20,9,5,-10,-41,-9,-11,-29
,61,11,5,2,8,-5,-3,15
,-47,18,9,2,14,11,4,30
,-18,7,5,8,1,0,-3,-33
,32,7,-2,14,5,-6,18,26
,-19,3,10,-16,-14,-1,-12,3
,37,-30,-15,-13,-33,-5,-16,7
,-48,-5,-15,-12,19,-2,39,27
,8,-8,-2,16,11,14,-25,-14
,-29,-11,-3,26,21,-1,-31,-31
,7,21,2,-28,29,2,19,0
,2,17,43,56,-49,-11,-15,-25
,-18,-12,-22,-28,12,-8,-10,20
,66,13,4,-39,-10,11,21,8
,-29,10,0,17,1,-9,-39,-38
,60,-20,-20,5,3,-1,24,55
,-19,-45,-5,4,41,0,-23,-14
,2,74,15,7,-41,-5,-5,-8
,28,-21,-20,-8,-8,-6,27,20
,-9,-12,15,-26,8,3,-30,-11
,24,20,9,2,-3,5,25,1
,-3,-41,-18,2,5,-2,-55,-13
,-50,21,28,30,-4,12,17,-5
,35,26,13,-9,-5,-6,0,-3
,-61,-3,-5,12,6,-13,9,3
,40,-21,-39,-50,-31,5,-16,-7
,95,30,-10,-33,5,-4,30,31
,-77,-52,-1,31,20,2,2,1
,3,20,-22,10,5,7,9,-7
,9,20,18,7,20,4,35,6
,25,0,-9,9,-1,2,-52,2
,0,34,7,-29,-18,-11,-3,-8
,21,-12,15,-6,-10,1,55,-11
,-2,15,-4,1,19,-8,0,26
,-52,-15,16,27,-14,2,10,11
,-30,-53,-43,2,35,13,-12,-10
,-34,15,2,-27,-27,-13,-25,-22
,-22,-7,6,-17,-25,-2,9,-2
,30,22,9,89,21,6,-2,-17
,-13,-33,-28,-53,2,-6,-19,-13
,19,33,24,12,30,14,14,28
,-9,10,24,-16,-21,-1,17,-2
,34,-2,-10,4,-10,-14,-7,17
,-62,17,-10,31,3,4,13,-45
,24,-32,6,-8,-18,-2,-1,43
,14,-2,-10,-3,7,-4,-3,-18
,-61,-53,-37,-29,6,-3,-37,-10
,12,-8,10,17,-8,3,6,8
,19,39,22,-4,-5,-3,-21,-19
,-23,-30,0,46,6,3,8,13
,9,18,2,-15,-4,-2,37,-10
,5,8,-18,-13,-14,-10,-61,8
,-44,-18,1,-7,-6,-4,3,19
,38,-11,-11,-10,-3,-4,8,5
,9,7,2,-6,0,4,8,-14
,14,27,23,-21,11,-5,-11,11
,34,15,23,41,-30,1,11,-2
,-72,-12,-8,-8,14,3,-54,-30
,-28,5,-15,-52,16,12,3,0
,-4,9,19,47,15,-6,30,-3
,5,-5,-19,41,13,3,-5,-6
,16,22,23,-8,-44,-14,72,0
,65,-2,-7,-33,-6,-7,-74,-1
,-63,-7,-12,-27,-21,12,15,21
,12,-11,1,20,0,1,4,-21
,11,29,-7,0,32,5,13,-3
,31,-10,5,23,-3,-5,2,15
,19,6,-11,-37,-19,3,13,13
,-13,-17,-13,-17,-11,-5,-18,-20
,-17,-18,4,9,8,2,10,9
,-16,18,20,-5,-9,6,3,-16
,62,-4,1,47,8,-9,-10,6
,-51,9,-1,-42,-4,2,-5,0
,33,3,-14,-6,9,-5,39,2
,-25,-1,16,7,-2,-5,-50,-7
,-19,15,8,20,-16,3,5,-9
,60,-38,-50,-72,11,-4,18,3
,-31,40,19,31,3,7,-18,10
,-83,-34,-9,-54,-17,4,51,4
,4,-80,-26,-4,23,-14,-25,-21
,-14,56,16,31,-10,6,-19,-11
,15,-23,-6,25,15,2,-22,3
,6,-5,-9,29,14,1,20,-10
,40,26,21,-40,-48,-9,-20,17
,-36,22,16,2,19,2,20,4
,13,7,-8,14,11,3,-33,-33
,27,-11,-20,-5,19,-5,-11,17
,-47,36,13,18,1,-1,92,31
,-10,-34,-16,-33,-17,-5,-79,-21
,-19,-5,0,-10,-19,-1,-12,-2
,54,-5,4,-49,4,1,24,17
,-30,15,-13,87,18,-5,-28,-21
,4,0,18,7,-16,-2,12,13
,-25,9,13,4,-19,6,11,-14
,69,7,15,15,-9,-15,-7,-15
,-24,6,-37,-8,50,10,-8,-4
,-16,-26,5,10,19,6,44,19
,19,-24,-8,-9,6,4,-17,2
,-15,39,10,17,-23,0,17,16
,21,-31,21,-52,-20,-3,-11,10
,9,32,-5,-6,5,-3,-7,-22
,-12,-20,-29,-16,5,-5,23,14
,24,-27,-7,10,-8,2,-39,-5
,-1,13,31,3,-18,1,1,-16
,-4,-48,-20,-18,11,-2,-5,-6
,39,34,7,0,3,-2,-16,0
,-35,-3,-2,24,-1,-6,26,11
,17,-4,2,-8,-5,0,-11,-9
,29,1,-6,-46,-1,-4,-5,0
,-17,10,-3,7,-3,3,2,1
,-45,-35,9,29,1,-2,5,-7
,46,4,-27,-18,-3,2,-28,-21
,-77,9,17,32,-15,-7,20,22
,37,-16,-9,-14,-20,-7,8,26
,-19,12,8,-1,21,9,-7,-4
,-19,-10,-22,-42,-17,5,-1,4
,95,0,-3,32,17,-6,-15,-16
,5,33,11,-35,8,4,14,0
,-72,-46,0,40,-8,1,-1,-9
,40,0,-10,8,-8,-11,2,6
,-9,14,0,-21,-7,-4,6,1
,4,-1,3,-5,-10,-11,-20,0
,30,9,-25,-26,-31,1,-11,-20
,-13,-9,11,5,39,6,12,15
,-19,29,5,14,31,1,5,10
,-9,-16,15,3,-9,3,-3,-3
,27,48,13,-11,-14,-1,-2,-20
,-59,-33,0,32,-12,-6,-23,1
,-26,-12,6,7,-6,-2,-4,-17
,-16,5,0,2,29,0,41,39
,31,-2,-8,1,-9,-10,-6,12
,7,35,11,-50,-18,9,26,8
,9,14,11,21,-11,-2,-3,-2
,7,-14,8,55,-9,-10,-7,-29
,16,46,-20,-70,-5,6,-5,15
,-82,-62,5,52,36,-3,-13,-21
,-2,-48,-12,-20,-11,-1,40,6
,-29,-18,-1,-18,-9,3,-37,-26
,44,-3,-17,-2,37,3,28,24
,26,29,29,17,-3,2,-11,-9
,99,-7,-13,0,1,11,-11,10
,-88,20,-1,5,-16,-9,3,-19
,-15,-72,-35,-42,7,0,30,29
,38,3,5,7,-8,-7,-10,-10
,-14,15,5,0,-13,2,-3,-2
,28,46,9,10,6,-9,-7,-44
,15,6,8,4,4,1,-31,40
,-80,-22,-48,-44,-3,-16,16,-23
,-10,-8,-4,26,-24,-3,-29,-35
,2,20,1,-42,26,0,1,21
,-44,-45,13,63,-7,5,20,-5
,50,3,-18,-18,3,7,5,13
,1,78,54,-41,3,8,21,28
,-58,-73,-28,89,33,-1,-30,-43
,6,8,-9,-25,1,-1,21,4
,1,7,24,7,-13,1,2,6
,-68,10,-7,40,17,-4,-42,-7
,56,-59,-7,-60,-34,-5,-1,16
,-37,13,15,5,-27,-9,-16,-24
,41,14,-22,32,2,4,-4,-19
,2,-23,7,2,6,-5,52,8
,75,7,2,25,16,8,-61,26
,-78,14,6,15,12,-2,15,-41
,20,-25,-1,-21,-17,-2,2,31
,24,-3,-5,-13,2,0,-44,-52
,4,2,5,-13,-27,-6,45,38
,33,-10,-9,-27,0,8,-3,-7
,-44,56,20,6,11,-6,12,23
,-29,-118,-38,1,40,-7,-54,-13
,-6,13,3,-13,-38,3,-12,-15
,13,28,-10,-4,7,-9,-11,-23
,66,31,26,12,8,7,12,39
,-77,3,-24,14,-13,10,22,6
,8,5,-19,-22,13,-12,22,19
,7,-33,13,42,-2,-4,-24,-17
,103,9,-16,-46,5,10,-12,-34
,-2,49,30,15,-6,-1,51,60
,-16,0,16,1,-12,-2,8,-9
,-28,43,16,7,3,1,-20,-2
,83,26,-13,-9,-9,4,39,-7
,-75,-3,19,15,-15,-13,23,13
,-50,-66,-40,-28,13,11,-9,-17
,19,17,17,22,16,3,-14,37
,-5,20,4,-5,12,1,-45,-41
,40,-46,-7,6,-24,0,80,32
,48,51,14,-35,1,-1,-45,-14
,6,8,8,26,7,-1,-1,-19
,-80,-44,-23,2,-7,-14,0,21
,-34,-62,-26,-62,-14,5,-10,-31
,82,10,20,-27,10,3,12,13
,61,9,-24,68,-6,2,60,26
,27,-4,22,-18,-6,-4,-43,-4
,61,45,-11,24,1,-13,-86,-32
,-58,-14,-5,-42,-9,8,24,23
,-34,1,-8,-16,-32,-6,36,2
,-47,3,28,37,35,9,-8,-20
,-5,9,-15,-16,5,2,21,36
,41,1,4,37,-9,7,-15,-33
,-91,-2,-17,-57,0,-13,-13,-16
,-40,-48,10,26,-17,8,0,-11
,103,31,-2,-34,20,3,11,15
,-18,44,11,47,-17,-11,-45,3
,37,-46,4,-22,6,6,19,20
,76,19,-16,-19,-16,-8,6,-15
,-60,4,-19,51,14,7,17,-13
,-13,-14,16,-7,8,1,-6,17
,86,17,1,0,17,1,6,-9
,-42,-3,8,-8,-17,-5,-12,9
,19,-13,5,-9,-4,-2,-14,-11
,-86,-6,-39,1,7,-5,24,-38
,-30,26,30,-33,19,10,-1,14
,2,-7,-9,21,-10,-4,13,2
,91,4,10,16,-3,2,-8,12
,-100,6,-1,7,0,-10,0,-22
,20,-40,-9,-5,-1,1,-42,-9
,-128,12,-11,0,9,-4,84,38
,-33,-11,-1,-26,-18,0,-38,-5
,43,10,16,12,-3,5,-21,8
,-60,27,3,9,13,6,-7,-28
,102,34,10,-3,-7,-2,-13,-14
,-37,34,11,-2,-2,-4,20,21
,-22,-90,-33,-6,3,-8,10,12
,-31,14,0,-15,-27,-12,1,-24
,54,1,-13,-41,-36,-1,-23,17
,77,19,53,63,40,8,-7,-30
,21,72,-49,-12,-1,3,41,32
,-62,-104,-20,35,21,-3,55,-2
,-26,-17,11,-21,22,-1,-89,-36
,35,-16,-10,-88,-61,-12,43,22
,94,48,14,51,19,4,-8,23
,-75,-12,-2,-19,-19,3,-21,-4
,-60,-83,-31,11,11,-13,23,-15
,-45,12,2,20,2,1,24,-14
,10,-6,19,-19,-4,3,-26,-11
,89,53,-1,-4,-12,2,4,31
,26,-35,-6,23,10,0,-28,-23
,4,17,-11,-20,5,-2,10,11
,5,-14,20,7,-10,-5,-23,15
,60,48,6,-24,6,-9,-22,-24
,49,-10,14,52,-9,7,26,44
,-71,-32,-66,-59,18,-2,-21,-35
,77,-9,-9,-20,-21,-9,20,19
,-93,-34,6,10,14,8,18,-9
,68,32,7,-41,-6,-9,-41,-19
,-28,23,-8,24,-9,2,5,23
,62,-15,13,34,15,-4,-14,-40
,-36,-17,-16,14,-21,-7,-67,17
,-101,26,-6,-32,-10,11,71,18
,-4,-18,2,37,27,6,-40,-26
,5,17,6,-26,19,5,18,-9
,103,45,-5,-17,-8,1,58,25
,-71,10,21,48,1,-3,-30,3
,18,-35,-5,-70,-26,-2,-18,-2
,-117,64,-22,17,4,-2,2,-24
,54,-101,9,17,-26,-4,-11,3
,9,15,-52,-37,17,6,51,28
,1,19,27,51,10,1,15,5
,57,27,9,-16,-7,-2,-37,11
,-54,49,24,1,-17,-13,-62,-52
,79,-6,-9,-3,5,-12,43,21
,-49,31,3,-9,12,9,-11,17
,-101,-98,-9,1,-5,4,21,-33
,-36,16,-4,3,-11,4,64,16
,51,15,23,18,18,4,-76,-9
,38,48,13,27,-1,-9,4,-10
,112,37,28,-13,-2,4,8,21
,-120,-13,-28,-16,4,-1,8,-7
,-12,-35,2,-22,-8,4,42,-42
,-29,11,-1,43,-3,-5,-76,26
,-64,-6,-14,-6,-3,-5,-3,-16
,60,11,21,-48,2,2,57,35
,-30,38,15,89,34,8,-62,-25
,42,-38,-3,-49,1,-6,21,8
,-42,-20,-8,0,-32,1,-5,-2
,12,14,-9,46,8,-3,-9,7
,29,9,5,7,-21,2,1,-3
,-98,0,-3,-12,8,4,31,-3
,2,-61,-10,14,21,-10,20,-4
,83,-10,-41,-60,-5,-3,-100,11
,-53,33,28,5,-14,2,21,-14
,68,-20,15,28,4,-13,0,2
,5,29,-27,-40,-26,2,-2,50
,-20,-71,-1,17,13,1,-1,-35
,-1,-37,-12,14,7,5,19,34
,50,13,-13,-12,10,1,4,-37
,68,24,33,34,-10,-2,-70,-6
,-10,26,28,-45,-12,2,15,6
,-44,-7,-43,-5,12,-7,19,13
,32,-23,13,27,1,3,9,8
,107,9,-16,-5,-9,-4,46,27
,-49,36,-14,-11,-20,9,-32,-27
,-36,-56,10,-4,18,0,-8,1
,60,40,1,7,1,-7,5,19
,7,18,8,28,13,-2,-4,-17
,-58,-33,23,33,0,1,-5,-18
,42,0,-38,-61,-12,-6,52,20
,-6,14,-7,-3,-5,-4,-94,-4
,-56,34,22,-14,-4,-1,30,10
,34,-7,-8,-13,-4,-5,5,4
,-38,-7,17,3,-13,-5,-9,-22
,10,24,2,-11,5,8,1,-16
,-72,-36,-21,-50,8,4,6,-18
,47,21,-9,58,-12,-7,11,21
,-10,26,-3,-8,-23,-3,25,4
,-17,-31,22,-12,19,-3,-36,-34
,-25,-19,-8,-11,-15,7,16,-20
,127,16,-21,12,27,-2,-5,20
,-4,-2,-4,-29,-9,-4,50,7
,-20,-40,6,16,-3,9,-25,-1
,-30,-30,7,-21,-14,-11,-12,-26
,94,104,58,27,5,9,40,13
,-66,-24,-57,14,17,7,-57,-15
,-13,-29,-28,-18,1,5,71,32
,-13,-33,-13,-8,9,-3,-18,-16
,-6,-38,-10,45,-19,-9,32,16
,66,37,45,-18,-5,0,-109,-52
,6,37,3,-22,-15,8,58,42
,-73,50,-2,24,7,4,54,16
,-42,-73,-3,-7,11,-6,-72,-22
,34,2,-1,-19,2,1,23,-10
,-38,-6,-1,-13,10,-3,-18,-15
,100,77,37,32,-5,17,56,37
,-63,11,-6,-32,6,-14,-28,-22
,5,-20,20,60,-1,-8,-8,17
,22,-39,-48,-58,-6,6,-4,-19
,-1,-34,4,9,6,-7,7,5
,-117,36,24,25,5,4,-5,-24
,80,-51,-12,-42,-21,2,3,26
,-78,-5,-1,30,-8,-7,-7,7
,-57,-4,8,41,18,2,-9,-22
,33,-6,-35,-51,1,-4,-39,-5
,-30,26,4,4,2,11,94,34
,-9,2,17,48,-26,-18,-51,-27
,-49,-1,0,-49,-11,-7,27,4
,9,-56,-20,-11,12,4,6,6
,-22,29,-2,3,-2,5,-21,-8
,-2,-62,-19,3,-4,-4,22,-8
,55,23,-7,25,6,-3,-37,-18
,-9,33,28,14,-1,-5,40,0
,-21,-7,-32,-22,11,6,16,42
,25,30,6,-11,0,-3,3,-8
,5,1,11,-2,-17,5,-45,-7
,33,22,-18,-11,3,-1,33,-8
,0,-51,24,44,0,-3,-30,-20
,-86,63,9,-23,7,4,46,43
,42,-61,1,17,14,1,19,8
,34,12,6,-19,-7,1,8,5
,19,6,6,-18,-36,-18,-40,-51
,91,5,17,3,7,-2,39,8
,-3,0,-21,3,-14,4,-52,-1
,-32,-2,19,35,24,8,32,21
,11,-7,-2,-42,-9,-5,-21,-19
,-25,4,13,33,-16,0,-27,-6
,27,-5,-20,-43,35,0,41,6
,-75,-13,-18,48,-43,-23,-102,-25
,61,0,12,17,9,-4,56,36
,-28,5,16,-10,-8,5,-5,-10
,-48,-21,17,16,7,-4,-5,-6
,0,-13,-37,-61,29,20,14,-17
,31,9,-9,-17,-16,-11,-1,33
,-10,8,4,26,3,-2,-14,-28
,13,-20,19,55,16,-2,-46,-6
,20,18,10,-38,-8,-7,15,-8
,-69,29,3,6,2,1,-2,11
,117,-8,-15,23,-28,-5,11,15
,-66,-9,-9,-28,13,-5,10,-13
,49,-3,12,17,-8,11,-3,13
,-7,11,3,-11,1,1,32,2
,100,43,12,-4,-2,-3,-48,3
,-40,3,-32,-28,11,7,7,-17
,-46,-17,2,16,15,3,53,29
,-3,14,18,11,-22,-6,-94,-6
,-50,-31,-14,-22,-23,-21,-4,-34
,50,20,15,-12,20,1,12,2
,-3,-10,3,-2,-26,10,8,16
,-26,26,-4,17,50,12,-9,-30
,8,-36,-8,0,-3,-3,20,21
,13,5,-4,-5,-11,1,-36,-28
,-8,20,4,5,-4,-12,-16,44
,-25,-20,-1,28,4,-3,2,-18
,-13,-3,-10,-34,-5,7,-3,-17
,13,7,8,-31,-27,-12,30,29
,-30,-31,-24,-41,7,1,-14,-24
,28,3,-12,24,7,9,43,-7
,-14,3,-6,-2,0,-15,-54,-2
,17,5,0,-11,-23,-9,23,7
,18,26,48,64,1,-6,-17,-8
,0,-15,-20,-52,-4,-1,22,-4
,-101,-58,-31,13,23,21,26,17
,32,54,28,38,12,-2,-28,-24
,6,-13,-14,-37,-5,-6,2,32
,-29,-23,2,31,-33,-4,-12,-12
,89,75,38,-17,-13,2,3,-13
,-99,-8,-50,-13,23,7,-6,23
,-52,-94,-19,2,17,0,26,-3
,2,34,5,-36,-21,-8,-28,-11
,45,9,7,53,11,5,17,11
,16,-4,5,-8,-6,1,-10,6
,59,5,7,7,12,4,14,-28
,-70,-14,-7,0,3,-1,-54,-15
,26,1,1,-24,-23,-8,1,21
,-12,-19,35,-7,-15,-1,48,-6
,49,48,-23,7,4,9,77,12
,-9,-50,-7,-18,18,-6,-58,12
,5,-3,-20,-21,14,-4,-4,-24
,-6,-18,1,-3,-4,-6,0,23
,37,30,16,44,-23,4,-10,-22
,7,13,15,-11,-12,1,25,-9
,-18,7,-7,9,30,7,-2,-3
,47,-17,0,8,-2,-1,2,-7
,-14,-27,-28,3,-4,-7,-41,-9
,-12,-10,-7,-28,5,0,6,17
,12,2,0,-8,-3,4,20,15
,81,15,-5,14,-7,5,13,10
,-87,11,23,6,-7,-9,-36,-24
,23,-18,-13,-25,-12,-3,37,35
,-19,6,8,-3,5,-3,-1,-32
,11,-16,-6,8,3,2,-2,9
,114,0,-21,-6,20,6,-38,4
,-24,37,33,31,9,2,15,7
,-37,-29,11,23,-14,-4,-50,-60
,-2,34,-17,10,-14,1,35,49
,-15,-40,4,-44,12,5,23,15
,-1,-9,3,5,9,-6,-17,-21
,-10,16,-6,-25,-9,-1,14,15
,-39,8,-11,37,16,5,-10,-18
,37,9,27,-12,-34,-8,3,3
,52,17,-8,0,11,-2,16,11
,-48,-19,-20,45,28,5,-20,-39
,-3,-20,-19,-20,-13,6,31,38
,40,69,8,-5,1,-4,-6,7
,-69,20,34,3,-27,7,2,-17
,35,-59,-41,-37,8,0,8,23
,73,31,26,-17,3,-5,-12,8
,-125,-9,13,31,2,-4,-14,-17
,113,-4,-43,32,27,4,-26,-11
,-113,6,12,-17,-6,-5,19,19
,-27,-23,-14,-45,-29,-5,-34,-23
,67,-37,-5,-3,-2,4,9,-11
,34,30,15,30,5,0,27,10
,3,11,4,-26,11,5,13,9
,-23,6,6,2,9,-6,-8,6
,-58,-6,-2,-1,-11,-7,-25,-34
,-18,-52,-18,-23,-17,-10,-4,6
,73,35,14,21,-1,-1,20,27
,33,38,-17,-6,-38,-17,17,11
,-42,-33,9,-2,7,10,-5,20
,-83,-52,-11,42,10,-1,9,-25
,36,-9,-21,-47,7,4,-27,-5
,8,34,5,7,25,3,-33,-39
,-16,7,-7,28,-1,9,41,59
,56,34,6,-60,4,2,17,-1
,-106,-25,9,48,-10,-5,3,-30
,-9,-43,-1,28,6,-2,-8,1
,27,-22,-8,-31,1,3,-4,3
,4,2,17,5,1,1,-22,8
,-59,-19,-30,-19,-14,-4,2,-29
,-6,-57,16,23,18,-4,47,26
,-38,63,5,-8,-18,-5,-47,-1
,-36,-70,-16,-9,-21,-11,29,-15
,77,21,14,-3,-12,-5,8,-7
,-47,-17,-14,-9,22,11,-23,-11
,50,11,0,-14,-1,-10,-30,-26
,5,19,20,19,7,1,48,32
,-16,-40,-30,12,-16,-3,-4,-2
,6,-36,6,14,13,-6,-12,-36
,13,61,1,27,12,9,25,22
,-50,-14,3,-67,-10,4,-44,-26
,67,-2,-18,43,-5,-1,-7,-3
,-15,-5,1,-26,-3,4,20,31
,29,-8,-16,-3,-2,-10,6,-31
,-3,25,20,30,22,-1,-8,20
,-75,8,-13,-44,-17,9,8,19
,-28,-1,-2,-13,6,3,1,-15
,6,-23,7,28,6,6,54,-14
,-47,40,5,-6,-8,-2,-41,-3
,17,-28,-3,0,5,5,7,23
,5,9,-24,13,-5,-10,-34,0
,49,-40,16,-37,-8,-10,-4,3
,-35,34,15,63,-40,-10,15,13
,-36,2,-20,-16,50,4,14,15
,9,3,25,17,-16,4,22,-15
,91,66,-3,-13,5,3,24,8
,-48,-37,-19,12,0,-3,-20,-34
,106,25,-5,-12,10,4,-60,-58
,-17,23,-26,0,-42,-17,-11,33
,13,-19,2,-27,12,1,42,54
,53,51,16,-22,17,9,-22,-22
,2,33,29,73,21,-2,-1,14
,78,-101,-26,-12,-4,5,17,-2
,-2,59,7,12,3,-3,42,-27
,-29,-35,-25,-42,-13,-13,-78,15
,42,60,37,10,-32,0,9,8
,-6,-49,-1,-28,11,1,9,-17
,68,51,-25,-4,-18,-6,-34,14
,-44,-36,6,16,25,2,35,-9
,50,-4,-33,-31,-1,0,28,2
,-43,59,41,18,-35,-5,-53,-43
,-35,-37,-13,-36,15,4,18,51
,127,40,10,50,12,6,9,-8
,-124,-7,4,70,29,6,-2,0
,-48,-45,-13,17,-3,3,-11,-10
,10,32,16,-23,-15,-3,-35,-9
,36,-3,-22,-55,-17,-14,28,12
,-42,-95,-14,-59,-6,-1,-27,-22
,83,100,-12,39,13,0,30,39
,-128,-92,2,-30,-7,-6,-15,-64
,127,53,6,32,7,9,13,48
,16,91,40,-7,-5,-8,-21,-32
,-120,-59,2,5,6,12,38,13
,93,-5,-24,-15,-13,-5,-28,-24
,-54,11,-5,10,15,10,21,7
,18,-34,8,-21,-35,-13,-7,1
,78,58,5,17,18,-2,-25,-25
,-8,55,-3,-9,-27,-4,23,55
,-6,-104,-14,8,19,1,44,-35
,-32,53,26,19,10,7,-40,21
,44,1,2,-49,-6,-1,-20,-25
,-88,-90,-28,3,2,-12,7,8
,-2,31,-18,17,7,6,-17,-2
,110,57,22,14,-5,-6,24,21
,-55,0,6,-12,-9,4,-11,-6
,-26,-6,20,49,28,5,14,-22
,-4,23,-15,-44,-21,-15,-34,5
,-8,-22,-4,-19,-1,4,32,9
,34,50,19,-3,-4,-7,-21,-5
,-28,4,-34,5,10,5,68,5
,-2,-21,-1,-4,-21,-10,-35,0
,35,-25,-23,-14,8,-1,-1,15
,-57,-26,-5,-15,-17,-6,2,-19
,2,24,47,29,-16,-3,-43,-35
,11,-22,-42,-40,13,-11,8,5
,15,-45,28,37,2,12,22,8
,-12,21,-22,-16,7,12,7,16
,5,-3,-1,26,21,9,-26,9
,-17,30,9,4,3,-4,91,-7
,-16,-38,-2,-10,-32,-13,-101,-5
,54,-6,-13,-15,26,8,23,4
,-74,22,21,-3,-31,-2,-20,-28
,-39,65,12,35,26,5,-6,6
,-55,-101,-41,-52,-22,-16,58,26
,24,40,36,43,-9,-4,-18,-18
,67,48,-35,-38,10,-6,-39,7
,-21,-29,17,3,-9,12,26,18
,52,-26,14,-4,-16,-5,16,-15
,16,6,-16,0,5,3,-16,10
,7,-62,-13,-4,4,-10,-15,12
,22,38,13,-41,-14,0,23,-25
,-38,-12,-10,35,-12,-7,-25,4
,-3,-30,0,-35,18,-7,-20,-23
,10,-28,-24,22,9,10,54,38
,-2,-2,20,-8,0,0,2,26
,-104,20,-5,22,14,4,3,-33
,-76,-12,13,2,-17,-8,-8,-6
,101,45,2,-14,0,-1,-5,24
,-111,-17,8,15,-11,4,11,-18
,127,58,7,-29,10,-2,28,25
,-65,28,-2,19,-14,-2,-71,14
,-38,-63,-29,-20,11,-9,-15,-34
,107,64,11,6,-4,10,-3,0
,-33,-1,17,-22,-3,-9,-26,-38
,22,-8,-49,-21,7,-4,67,28
,-25,-3,29,-3,-17,3,-5,17
,80,5,-5,40,-2,-7,-36,4
,-60,5,1,8,8,8,25,-4
,0,-2,16,-13,-1,0,-13,-4
,-39,26,9,4,-15,-10,-26,-33
,26,-53,-17,-3,0,-6,62,16
,-44,18,6,-29,-11,0,-49,-19
,-42,5,4,37,13,8,-6,4
,81,3,3,-13,16,3,0,0
,-43,-40,3,-4,-17,-9,-38,-26
,64,49,-1,42,-4,-5,73,56
,57,9,13,-45,7,4,69,19
,-71,-61,-25,4,5,-5,-45,-27
,-25,17,31,27,-22,-2,-26,-37
,8,-26,-46,9,33,7,0,34
,127,10,-3,-27,-29,0,-9,-7
,-79,-19,20,17,-2,0,36,14
,2,-11,-24,-13,14,-2,-25,0
,25,6,27,1,-18,-2,43,-16
,-68,25,3,26,11,0,-23,1
,0,-22,-21,-7,2,4,-1,-23
,-45,43,2,-11,11,6,-42,-28
,-44,5,8,17,5,4,-34,22
,12,1,-23,-30,2,-7,46,7
,9,9,19,43,-40,-3,-11,15
,84,7,-35,-24,26,8,15,43
,-87,-11,8,-11,-2,8,88,3
,-63,-46,16,26,3,-10,-86,-32
,45,37,2,24,-12,-10,-23,-16
,90,15,-9,-24,-1,4,-3,6
,-8,31,-14,-77,-19,1,-21,-35
,-34,-36,-1,56,13,2,24,18
,28,36,33,26,18,9,1,5
,14,-28,-17,-21,-8,-14,16,11
,0,-8,-1,54,-11,-1,-28,2
,-25,-3,-6,-44,11,4,-14,-20
,-17,-18,6,-29,3,-7,6,2
,-60,-35,-5,32,-5,3,21,2
,61,12,-4,-15,-20,-10,-27,2
,35,29,7,42,0,-5,-1,2
,-28,-15,20,3,5,-2,-1,-10
,-68,-11,-17,-24,3,4,-18,7
,-40,-7,-31,-10,14,11,-10,-21
,100,5,15,-5,-9,-4,-1,11
,-9,29,-3,-9,-5,-4,-4,-2
,-3,-32,-16,14,-4,3,-7,-5
,-14,6,20,0,14,-4,27,-4
,-14,-20,1,0,-7,4,3,9
,-9,16,-23,10,4,-9,-23,-9
,29,-4,30,-37,-14,-2,-28,-25
,24,19,15,55,15,0,-4,15
,29,33,9,-17,-13,4,38,20
,-49,-9,-60,-49,9,6,63,17
,-37,-50,-1,11,1,-6,-48,-13
,53,-11,-14,-22,-8,-5,-6,-10
,-41,-22,18,3,-15,-4,-5,-10
,52,55,37,27,4,5,-2,2
,26,39,-1,10,14,10,-3,-8
,8,-27,-6,-44,10,-4,25,-3
,-89,18,10,50,2,-3,-17,-18
,60,10,-16,-53,-12,7,24,6
,-83,-10,3,30,-2,-10,-11,8
,12,-6,18,-30,-13,-13,-40,1
,6,-2,0,31,19,6,18,7
,83,31,0,-5,-9,-7,-15,-20
,-43,37,-2,5,-10,7,-13,-24
,-43,-16,6,8,25,12,73,57
,123,21,-8,-32,-1,-7,-33,-40
,-72,-28,5,24,-12,-1,-4,27
,59,17,8,-5,-8,4,20,17
,-88,-36,-16,-1,22,1,-27,-18
,-13,-15,15,32,-26,-6,10,-8
,-12,-6,1,-41,1,1,7,-3
,26,29,-33,-10,23,1,-12,23
,39,36,5,34,15,3,-38,-27
,-37,-33,-4,0,-5,-9,60,45
,4,13,8,-8,-32,3,-48,-9
,77,-21,-4,32,3,0,31,2
,-31,3,-5,-10,8,5,-8,26
,-59,-6,3,-15,1,-3,-18,-17
,13,-80,16,26,-2,-3,4,-17
,38,16,-31,-41,-1,-3,9,-7
,38,34,21,21,-29,-3,-9,4
,-13,-16,-24,-25,18,2,32,12
,23,-23,-2,-21,13,-6,-46,-13
,-97,27,12,-7,-36,3,-5,-5
,17,-58,-6,-17,21,-8,14,-13
,14,14,-8,3,-4,11,4,11
,-4,23,9,16,0,-11,9,-11
,6,-34,1,25,19,0,-47,-5
,-11,9,-8,-14,-10,-4,-30,-15
,5,16,-3,-7,9,10,-17,-2
,-25,-40,-13,24,3,-1,-3,26
,19,2,24,-3,-31,-5,76,40
,35,17,-14,-20,3,3,-14,-24
,27,-10,-19,-11,3,-3,-36,-11
,-83,18,5,21,14,8,16,-10
,-23,-14,6,-4,0,-8,-14,-1
,40,-21,-14,2,-19,-2,15,-1
,-42,31,-9,-12,1,-6,5,-17
,23,-8,0,-34,6,2,-8,-5
,6,-8,15,-21,0,-8,-20,-24
,22,42,19,95,9,7,35,29
,-29,-22,-26,-46,-10,2,8,17
,23,-29,-20,-10,-1,-3,-20,-11
,-16,-28,4,2,7,-1,24,4
,10,27,10,7,7,-2,-18,-33
,-6,23,17,-11,-35,-6,-18,5
,14,8,3,25,7,6,49,9
,-24,-4,10,-7,-15,-9,-23,-39
,-1,-3,-13,-18,0,1,36,15
,27,-24,-4,-4,19,3,-18,19
,-33,55,-24,-74,-16,-6,-14,-13
,-61,-67,-1,98,25,1,24,15
,-23,11,6,-44,-10,-5,23,0
,15,-20,14,15,-8,-2,-19,-33
,51,8,-3,-7,-5,-4,-23,8
,-28,48,24,-13,0,-4,-26,4
,-17,-26,-44,-12,-6,-5,-23,-35
,50,35,8,5,12,8,48,33
,-52,-1,-6,12,9,3,-32,-1
,54,6,10,8,-6,-5,32,10
,15,-36,3,-25,1,2,-47,-4
,-33,-16,-40,-31,-22,-11,-10,-26
,68,42,14,-19,-7,4,9,18
,-27,18,-7,37,27,6,14,5
,50,-45,-14,-13,-19,-5,-22,-6
,-37,1,5,57,19,-6,-16,1
,41,-2,23,32,16,9,41,21
,-8,-20,-11,-49,-11,-8,6,-12
,18,41,9,5,-15,8,-8,5
,-17,-107,-26,-48,-2,-9,-16,-22
,6,-9,-4,12,5,6,28,25
,32,29,0,-21,2,4,-56,-52
,-32,23,-7,-2,-14,-2,54,68
,10,15,16,11,5,-2,-14,-10
,-40,7,2,33,22,5,44,2
,-51,-33,-21,-18,-17,-2,-51,-3
,-14,-14,15,24,5,-5,-26,-33
,17,20,-5,-6,-13,-3,-8,-4
,-52,-4,13,25,1,-2,3,-5
,5,-32,-28,-70,-23,-3,2,9
,-6,29,9,4,7,-2,-4,-37
,35,3,30,44,22,9,45,61
,-38,-12,-38,-22,7,-9,-14,-31
,32,19,-7,-31,-11,0,1,-2
,-35,-3,3,6,-21,-13,-16,-6
,81,57,11,3,-21,6,27,-10
,-47,-43,-1,34,22,-7,-8,11
,66,-1,4,-30,21,-3,-3,6
,-48,25,-1,17,-19,9,3,-4
,17,-40,-1,39,25,5,-7,1
,-3,34,44,5,2,11,-24,-11
,-1,-41,-34,-25,-1,-8,45,11
,-15,-10,17,45,-6,-6,-24,5
,-38,8,-17,-55,-11,5,-2,-3
,-13,-19,-21,-26,-8,1,6,-15
,2,5,19,41,9,2,24,11
,25,11,-16,-28,6,-7,8,6
,-1,12,5,24,2,1,-8,-2
,87,-9,-9,-13,-7,-8,32,-2
,-38,32,-5,-8,-7,-4,-64,-20
,19,-30,10,6,-21,7,37,-8
,33,-9,13,-13,18,-6,-28,19
,-69,30,-5,-50,-15,1,26,0
,0,-10,9,109,26,7,27,32
,28,-6,-18,-26,-2,-1,-13,7
,55,60,1,-29,-16,-12,0,-29
,-82,-54,-7,22,-10,-7,-44,-22
,85,16,19,-11,-27,10,26,24
,-42,6,27,5,27,6,2,-11
,-39,-76,-38,-24,15,-2,23,5
,74,73,-19,6,-10,-12,-69,-9
,-73,-15,21,-6,-17,3,9,4
,61,14,11,45,6,7,41,28
,-21,21,15,-29,-4,0,-15,-12
,-62,-23,-19,13,24,6,13,-5
,-20,9,19,21,-5,-4,-8,7
,107,8,15,-3,11,0,4,6
,-115,-33,-9,24,-15,-3,-6,-2
,127,38,-16,-40,-19,-2,-21,-13
,11,26,9,-6,13,5,0,-20
,-17,-69,-8,4,-11,-9,21,40
,2,64,-21,33,22,1,-19,-21
,-9,-43,-6,-22,-3,8,7,11
,37,50,5,-49,0,5,21,12
,-62,6,16,19,3,1,-1,-9
,32,-45,21,-34,-17,0,-40,-13
,22,7,-10,83,18,3,22,-8
,-75,-40,-17,-37,-26,-5,81,28
,-10,15,-15,-63,10,12,-61,-17
,-67,13,10,18,-10,-9,24,18
,19,-14,20,8,10,2,40,3
,66,45,6,19,1,-7,-57,5
,-35,-19,-21,-18,9,-8,29,-2
,36,15,28,13,-15,7,-30,3
,-27,-7,-23,-17,1,-4,61,-2
,2,-60,-27,-8,2,-7,-73,-25
,2,53,-1,-7,6,6,-29,-16
,-39,-6,9,25,-9,-2,20,12
,21,1,31,13,-6,-6,-14,2
,-8,-1,-17,-33,-14,-1,0,-11
,-47,13,-13,53,18,4,-42,-28
,-24,-19,1,-15,-11,-5,58,13
,30,-28,11,-11,16,4,6,32
,-46,27,-12,-11,-14,0,-8,-24
,39,-21,15,-43,-13,-8,-10,-7
,11,-2,-27,11,9,7,26,-2
,-65,14,23,28,2,2,3,17
,34,15,12,10,11,0,-14,-11
,2,5,11,11,4,-7,-10,-9
,6,5,12,-3,-22,-8,-17,-7
,28,-15,-27,-13,-12,-8,-2,-6
,-79,-35,-7,-7,8,7,17,-7
,-14,-32,-12,-34,-8,1,-5,-8
,50,16,10,39,10,-1,-3,5
,-59,35,-4,-7,1,-1,-42,-25
,45,17,27,1,-2,1,13,47
,-34,16,-52,-28,-6,3,10,2
,94,-3,15,-11,12,3,-16,-43
,6,6,-7,-4,-15,-10,14,60
,13,-7,9,26,2,0,-6,-26
,-49,23,19,10,20,5,-4,1
,-30,-70,-24,-6,-24,-2,4,6
,53,-14,4,28,6,-4,-16,-28
,-8,-24,-24,-2,5,-9,8,-1
,-1,-38,-17,-61,-34,-8,12,13
,-37,43,1,51,15,-1,-9,-15
,-28,-41,12,-42,-17,-1,-26,-1
,92,25,17,46,31,2,75,29
,-79,-17,12,48,-16,-7,-88,-25
,41,12,1,-34,-8,-8,94,18
,-29,11,-13,-28,2,-5,-99,-27
,-10,-55,-8,10,16,12,20,-8
,9,23,-8,-2,20,3,39,19
,19,-1,4,8,-7,-6,-26,-12
,-29,25,16,-59,-19,1,23,19
,65,23,-2,20,10,-3,-5,-18
,-75,-28,1,58,14,3,51,40
,-24,-33,3,-11,4,1,-44,-20
,97,44,15,5,-6,3,36,-16
,7,24,19,-37,-21,-8,-79,7
,40,-12,-19,-5,1,0,18,-6
,0,21,-25,-19,20,8,2,13
,-3,-1,12,18,2,4,7,-12
,-39,-49,2,19,-14,4,8,-6
,64,3,-24,-9,0,-7,-25,-14
,-42,-4,1,-48,-3,3,7,10
,27,0,-9,34,-12,-8,-2,21
,-10,10,-4,-56,11,-2,-5,-5
,-16,24,25,55,-17,2,-8,12
,-9,6,15,-8,15,5,-33,-39
,54,-34,-25,8,7,8,31,17
,-111,-21,-19,1,-12,-4,88,24
,26,-26,10,-15,10,0,-71,-15
,53,29,13,4,9,-2,1,0
,-61,21,3,9,-18,16,19,12
,19,-3,-35,-18,-6,-10,-8,-3
,91,11,14,2,-20,-12,38,20
,-61,-4,-13,-3,16,0,-17,2
,-41,-62,26,14,7,-9,-34,-30
,27,36,4,48,4,-2,-19,-21
,31,2,-41,-104,11,5,25,15
,62,16,-4,36,-12,-4,4,13
,-80,17,8,-34,-9,-3,-1,-1
,-31,-47,24,34,7,1,-26,-40
,54,17,-15,-8,1,-4,1,10
,28,17,0,7,-2,2,1,7
,-71,5,-17,-36,14,3,9,-13
,-6,-43,-28,70,-9,0,-13,3
,-30,1,6,-41,-13,-1,49,-4
,37,-5,-18,-20,-6,-3,-49,-16
,6,45,15,15,-6,-6,70,29
,20,16,23,10,-5,-10,-49,-2
,-63,-18,-30,-18,10,7,-23,-32
,-18,7,-22,-9,-7,-5,87,31
,109,-15,18,11,-26,-6,-75,-4
,9,48,6,-19,20,11,23,-3
,-22,20,9,13,21,2,-22,-17
,-49,-37,28,37,-5,-12,-6,23
,74,-76,-74,-33,16,0,-21,-23
,-3,61,25,0,-9,1,34,40
,-4,19,11,37,-7,-1,-20,-24
,25,3,14,-44,-13,-10,5,-2
,-24,12,10,67,21,10,20,13
,2,-17,-32,-53,-31,-3,-45,-29
,27,7,10,5,24,6,35,9
,-66,-13,10,-15,1,5,6,20
,69,-17,19,38,5,-15,-29,-32
,-62,-5,-20,-17,-33,2,-9,19
,29,38,38,19,20,-1,57,21
,-21,-11,-28,7,4,7,-43,-2
,-3,3,-10,-90,-8,-4,-23,-13
,-26,-23,-1,47,11,0,5,-6
,68,-16,19,62,-17,-15,-15,22
,-29,-5,-35,-49,-8,6,-5,-26
,9,31,10,18,18,8,11,8
,21,8,4,-6,10,-5,-7,18
,-62,-18,-9,-38,-16,-1,10,-17
,60,17,0,12,-6,-5,-15,-7
,-68,1,11,35,1,-3,72,-8
,25,25,-1,-35,-3,7,-43,-13
,15,-64,4,30,11,-2,-17,-4
,-29,9,7,-13,5,-1,29,31
,17,40,10,-6,-15,-5,4,-14
,13,-10,-28,-23,-20,-3,3,17
,12,38,13,7,18,-1,-17,-17
,-34,-79,-32,-7,2,6,-9,-16
,-31,4,3,22,-9,-6,-13,5
,53,11,43,66,11,-5,21,2
,-20,10,-59,-85,-19,-4,-13,3
,31,-22,2,27,10,11,13,7
,-7,-7,1,1,22,4,-4,1
,-46,-24,6,-8,-3,1,-9,2
,-2,-29,-12,-19,-14,-3,-4,-10
,-36,9,2,46,1,-8,-4,4
,-3,-19,-40,-80,-26,-3,-26,-25
,15,52,14,-3,-1,-1,10,-20
,24,-3,21,58,1,-2,45,44
,-24,-9,4,-10,-1,3,29,-17
,87,5,5,31,5,-6,-37,19
,-52,-52,-24,-42,-7,4,8,3
,-11,15,5,18,-27,1,3,5
,82,38,37,38,-4,-11,-8,-17
,-82,-30,-27,-59,40,9,-19,-12
,82,15,-35,6,22,-7,14,-19
,-61,23,15,-34,-31,0,-9,10
,-66,-52,0,38,-8,5,-15,-4
,16,52,49,37,6,8,49,36
,-26,-51,-12,-80,-2,-10,-21,-23
,12,5,-19,98,22,5,-3,-1
,-10,-3,-2,-38,-18,-4,8,3
,30,22,5,8,-5,3,-19,2
,-54,-24,18,7,11,1,38,1
,6,-8,3,-10,-19,-9,-45,-10
,61,27,-29,-60,-5,-4,35,3
,-61,9,-5,-22,-28,-4,-37,-25
,-17,-40,-19,15,16,6,18,-1
,-19,-15,31,-2,-5,-4,-40,-26
,-14,23,-10,28,22,11,10,24
,30,26,11,-19,4,-10,4,21
,-18,1,31,22,-11,5,15,13
,-23,-13,-20,7,-13,-5,7,-7
,48,18,-4,-60,7,8,-26,-18
,10,-15,-11,44,22,5,69,11
,-20,47,10,50,-5,-2,-63,3
,13,-35,-4,-28,6,7,15,-4
,-26,19,-1,-5,-30,-8,-9,-7
,6,5,-13,-30,4,-5,-15,-5
,30,28,4,-28,15,-2,17,-11
,9,21,7,-8,0,11,-15,-16
,-30,-26,9,49,22,5,50,25
,-24,-45,-17,-7,-8,-3,23,9
,6,33,25,-2,2,-2,-40,-8
,45,34,5,-22,-18,-12,22,-10
,-48,-22,-22,-27,2,5,-67,-20
,-79,-36,-6,28,-9,6,0,-6
,33,-33,-2,36,7,-9,42,25
,2,2,5,19,8,-2,4,-4
,36,64,15,12,4,-9,-11,-8
,-23,-48,-32,-19,-10,1,-30,-8
,27,28,15,-29,-13,-2,-10,10
,-9,-10,-4,-20,13,3,27,-3
,10,-15,-24,-15,-4,-7,-33,-26
,-1,16,16,-20,-10,4,17,63
,71,-16,-9,-4,23,4,-9,-29
,-77,-26,-4,6,-8,2,42,47
,67,10,26,-26,-15,-14,-28,-29
,14,37,-8,43,-3,4,-2,-4
,-71,-36,-13,27,10,4,-5,-12
,-5,-17,-9,-12,14,1,-21,1
,-2,9,15,19,-18,-6,8,20
,-3,1,-22,-23,-5,-6,3,-11
,26,42,8,-9,-11,3,12,21
,-30,-26,-3,-19,11,-6,-12,-25
,-16,-23,27,3,9,3,17,34
,33,-1,-14,-3,-10,-7,-31,-32
,-53,-3,-7,-24,-7,-6,46,15
,68,16,11,9,14,1,-29,0
,3,2,-23,-15,-16,2,-34,-5
,-52,-28,20,32,7,0,0,-9
,10,18,-3,-1,0,1,-30,-21
,57,-14,-10,-6,-4,-13,10,22
,-68,-17,3,5,-5,-2,-14,-14
,14,-13,12,-7,-17,0,-9,21
,20,38,-3,-11,9,-6,8,-13
,-34,28,18,47,26,-4,2,7
,-44,-7,3,2,0,2,-1,-38
,13,-30,-31,-27,-23,-5,33,24
,-23,-9,17,-8,-15,-3,-11,-10
,17,-12,-30,-8,20,14,-10,-3
,62,41,17,27,2,1,14,7
,-32,-21,9,2,6,-5,-8,-15
,29,-1,1,-6,3,-7,-10,7
,-29,7,-5,5,-10,0,-7,-12
,10,-16,-11,4,6,10,45,11
,-11,20,15,13,6,-2,-47,2
,-56,-27,-9,-4,-3,0,4,-6
,57,36,18,-15,-28,1,-3,-8
,-15,6,-47,-20,24,3,-9,-2
,28,15,26,-12,1,-5,-2,-27
,-17,-10,-32,29,12,3,31,44
,7,-2,19,-1,0,0,-32,-11
,-12,-12,0,23,-24,-5,29,37
,18,-33,-10,-30,3,5,7,-10
,69,25,19,7,-8,1,-34,-9
,-64,-20,-41,-15,11,7,31,11
,20,21,12,-6,13,-5,-22,-26
,-7,-34,-4,3,-14,-16,6,8
,21,-20,5,3,-13,3,-11,-18
,-24,-3,12,11,-4,-12,-15,-18
,-21,14,-8,-18,-21,3,-3,8
,54,42,11,20,16,6,17,19
,15,33,23,40,31,14,42,-20
,52,30,-30,-42,-27,-11,-58,21
,-49,-60,2,1,1,-18,-2,-14
,78,-18,4,51,-9,-5,-3,-2
,-78,-5,-16,-30,-1,7,20,16
,22,-16,19,13,13,-4,6,-21
,83,-10,8,-21,-11,2,12,7
,-22,30,26,41,7,9,-10,9
,18,-17,-52,-50,-4,-15,-14,-3
,-4,24,1,-11,-4,2,15,6
,-39,3,-5,17,5,5,-43,0
,22,24,-12,-27,-3,-4,31,3
,-14,-30,9,19,-6,-1,-7,3
,-34,-60,14,3,-22,1,-8,-28
,2,4,-31,-20,25,3,8,27
,19,25,13,16,2,-3,-39,-26
,-16,7,-17,-38,-10,-2,22,13
,17,15,4,-11,-4,4,6,21
,-15,3,15,0,19,-6,3,-18
,12,23,13,67,6,13,-5,-10
,-31,-3,10,13,-21,-6,-13,8
,45,17,-22,-12,5,-1,34,30
,-55,3,26,23,13,1,-7,-5
,-8,-28,-15,-18,-10,-3,-3,-9
,10,9,-4,-16,6,5,-8,-13
,-19,7,13,43,2,5,8,1
,39,20,11,4,2,-1,-9,0
,-23,-22,-8,-10,6,0,17,7
,-3,-12,-3,5,-5,2,29,-13
,-13,-1,-4,-28,-6,-4,-29,12
,34,4,-7,-1,-16,-2,13,1
,-36,-2,-2,-16,0,-3,36,-11
,19,-6,11,10,6,0,-52,7
,7,7,-10,-9,2,7,-9,-5
,0,-7,-3,13,-7,-4,27,6
,-10,-7,0,-3,3,2,-13,-9
,15,1,-6,-17,-30,-3,3,1
,-7,-6,2,4,15,0,12,-8
,-13,-8,1,3,-13,-3,-16,-4
,-5,5,1,-24,5,-7,0,3
,14,-12,-5,8,-10,5,-2,-2
,-14,7,2,8,6,-3,2,-3
,8,-6,-9,0,8,0,4,-7
,5,2,-7,-17,2,2,-6,12
,3,9,0,0,-7,-2,2,2
,-5,-11,4,4,5,1,7,-6
,5,4,7,-2,1,0,2,2
,-5,-3,-5,-4,0,-1,-3,-2
,2,-7,-2,-6,9,-3,-15,-2
,-3,-6,2,-4,-11,-4,5,-4
,11,-5,-13,-7,-6,1,2,-1
,-9,-8,-8,-3,-6,-3,8,-3
,1,-3,0,2,2,-6,-14,-3
,-4,1,13,6,-3,-12,-1,-4
,0,-5,-17,3,3,10,2,13
,-2,-2,-6,-11,-2,-1,2,-11
,3,1,3,-6,2,2,6,1
,-3,-26,-3,2,0,1,9,0
,-1,-2,12,-2,-5,-2,-8,-4
,-3,4,7,-3,-2,1,-6,6
,2,11,10,7,6,-1,1,1
,-3,0,-5,5,-3,-3,2,-2
,2,0,-17,-6,-4,-3,7,8
,-2,-8,-27,-6,-7,-7,-8,-10
,5,3,0,6,5,-6,-4,5
,-2,-8,17,-6,-8,2,6,-9
,-5,-20,23,0,0,4,2,-3
,-2,-9,-37,-9,1,6,-7,4
,-1,-2,15,5,-1,3,-1,0
,-1,5,-2,-3,5,3,-3,-9
,2,14,-12,-8,-5,0,3,0
,-3,0,4,-1,4,-6,-9,0
,-2,-3,-2,8,7,-1,29,0
,1,8,-10,-4,1,-4,-24,4
,-1,3,4,7,2,-6,-4,-7
,0,5,10,4,-9,-2,-7,12
,1,3,-8,-7,-19,-5,3,-12
,1,2,0,2,23,6,9,0
,-1,-1,1,-3,-5,-2,0,-6
,0,4,4,-2,-3,1,4,-2
,-1,3,5,-4,-5,0,-9,6
,-11,-11,-5,-2,-12,-4,3,1
,-2,1,-20,-9,-3,1,-6,-5
,1,4,18,4,-1,-3,4,2
,3,3,-5,0,5,3,-5,-1
,3,8,-1,1,-4,3,1,0
,1,4,2,1,4,-3,0,2
,-3,5,3,-7,-4,-1,-5,-6
,-2,-3,0,-2,4,-3,-4,0
,-2,-5,-8,4,-7,-1,8,5
,-1,-1,7,7,6,1,0,1
,-2,-1,3,5,1,-2,-3,-3
,-2,-4,-10,-2,3,-2,-7,-2
,-1,-3,-4,0,-3,-3,2,1
,3,-2,0,2,-4,-6,-3,-3
,1,-1,-3,-3,-1,-1,-4,-2
,-2,-4,-8,-5,-2,-2,0,-2
,-3,0,-2,-1,-4,-1,2,-2
,-1,0,5,-3,0,3,-5,0
,-4,-1,2,-1,4,2,0,1
,-1,-1,-1,-3,1,2,-1,-3
,1,2,0,-2,0,1,0,0
,1,-3,4,2,-1,-4,-3,-3
,0,0,3,1,-3,-3,1,-3
,-2,-1,0,0,-2,-4,-4,-4
,-2,4,1,0,1,1,1,6
,0,3,-3,-1,1,1,0,-11
,-1,-15,1,4,3,1,1,0
,0,2,-6,-3,-3,1,2,-1
,0,-3,-9,-3,-3,0,0,3
,0,9,-1,0,0,-1,2,3
,-2,5,-2,-1,-5,-7,2,-3
,-2,-4,0,2,-7,-2,-2,2
,-2,3,3,-1,3,-3,-2,-3
,-2,-5,4,-2,-4,-2,-3,-1
,-1,0,1,0,4,2,-6,-3
,-1,2,-1,-2,3,5,-1,0
,-2,3,-4,-1,-5,2,-2,-3
,-2,-2,-2,0,1,0,-1,-1
,0,2,-2,-2,1,1,-1,-1
,0,1,-1,0,-12,-5,-2,0
,1,-7,0,-2,13,-1,1,-2
,0,-4,1,-1,-5,-2,5,3
,0,-1,0,-2,-3,-1,-1,1
,0,-6,-3,-1,1,-1,1,-1
,0,-1,-1,-5,-4,0,-1,-2
,-1,-2,0,-3,3,0,-1,2
,0,2,-1,1,-2,4,-1,-1
,-4,0,-4,-3,2,1,-1,-2
,-1,4,0,1,0,-7,3,11
,-2,3,-1,-2,1,-2,-1,-12
,0,-3,-11,-2,-3,-1,1,0
,0,0,1,3,4,2,2,-1
,1,-1,1,0,-7,2,-10,-5
,0,-4,-4,-4,-4,1,0,3
,0,0,3,-1,1,-3,1,-2
,0,-4,-1,-2,2,-4,0,1
,-1,-4,2,0,-2,-2,3,1
,0,-1,3,3,-4,-6,-4,1
,-1,-4,2,-1,-2,2,-3,-1
,-2,-3,0,-2,4,1,-2,0
,-2,-2,-1,-2,0,3,1,-4
,-1,-5,-3,-1,-1,2,-1,2
,-2,-1,-4,1,-1,-2,0,-1
,2,-2,-2,0,-4,-2,-2,-2
,1,2,-2,1,-2,0,-2,-2
,1,2,-2,0,2,-1,-2,-1
,0,3,1,0,1,1,-2,1
,-2,1,1,0,2,-1,-4,-3
,-5,-5,-3,-2,2,1,1,6
,-4,-4,-2,-1,7,4,1,-6
,-2,0,7,-2,-5,-4,0,-1
,1,-4,1,1,1,-5,-4,1
,3,1,5,11,3,-4,-1,-3
,0,-2,-6,3,-6,3,1,6
,0,1,-2,1,2,2,10,0
,0,4,2,-4,-6,-1,-5,-3
,-2,0,0,-4,-11,-2,0,2
,-1,3,3,1,-1,-1,-1,0
,-2,0,-4,-2,-1,-1,0,-3
,-3,0,4,-5,-2,-1,3,2
,-2,0,-1,-5,-3,-2,0,-4
,-2,-2,-2,-2,3,2,-3,-1
,-1,-2,-3,2,-1,-3,-2,-2
,0,-4,-4,3,1,-1,0,-1
,1,-4,-4,-2,-1,-2,-5,-4
,-1,-4,-3,-3,-3,-2,2,11
,0,-1,3,-2,1,-1,-6,-17
,0,-2,-3,-2,3,3,0,1
,0,-3,-5,-4,-2,-2,1,-3
,-2,0,12,2,0,-4,0,2
,2,1,-8,-4,3,-3,1,13
,-7,-6,-11,-3,-4,-2,-1,-8
,0,-1,13,-1,-3,0,2,-2
,-1,-3,-26,-3,-6,-2,4,-4
,-1,0,12,2,3,-1,-9,10
,3,1,-6,-3,-3,-4,-2,-5
,-8,-9,-21,-2,-10,-1,-2,-4
,3,4,9,2,10,5,-1,1
,-2,0,1,-1,-4,1,3,-2
,2,2,4,-1,5,2,4,9
,-2,2,6,1,-3,-1,-3,-1
,-3,0,4,2,-4,-5,-1,-5
,-3,-2,-6,1,-5,-2,0,2
,-1,-3,6,3,4,0,-2,3
,2,0,-5,-3,0,2,3,-3
,-2,-2,-2,-3,-2,-1,0,-5
,2,-1,0,-3,-1,-1,0,-1
,-1,1,-1,-2,-7,-2,0,-3
,0,1,1,0,-1,-3,-1,-3
,2,-3,-3,-4,-4,-1,-4,2
,-4,-3,1,-3,6,0,-3,-1
,-1,3,5,2,-3,1,2,-2
,3,1,-1,2,-1,3,-1,1
,1,0,8,3,-3,-2,-3,1
,-1,-1,5,3,0,-3,0,11
,-4,-6,-33,-7,-1,-5,-4,-21
,0,3,2,1,4,0,0,2
,1,0,-4,-2,0,-4,5,4
,-1,-4,-11,-3,-1,0,2,-8
,2,2,9,0,0,-2,-1,9
,0,-3,-5,-1,-2,-4,-5,0
,0,0,7,3,-22,-3,-4,-7
,1,2,13,2,13,2,1,1
,-3,2,-1,-4,2,6,0,17
,2,0,-7,5,3,0,-4,-19
,-6,-2,-3,-4,1,1,0,1
,-1,-2,-4,-4,-7,-3,1,-5
,1,0,12,0,-2,-1,4,0
,-2,-1,-3,-1,1,1,2,8
,1,0,12,3,1,-3,0,0
,5,-5,-2,-7,-6,-1,3,18
,-11,-8,-50,-6,1,6,-5,-25
,-3,3,17,-5,-4,1,6,-9
,-3,-3,-6,-2,8,1,-12,-4
,-7,-4,-19,-4,-2,1,-5,-5
,6,2,22,2,-3,-3,2,10
,3,-2,5,2,0,-5,1,5
,2,0,-3,5,1,4,7,22
,1,6,50,6,-3,-7,-6,-21
,4,1,-11,-6,-7,-16,25,5
,0,-4,-33,-14,-4,-1,-47,-1
,6,-6,-50,-13,4,15,1,-21
,2,3,-26,9,1,6,5,11
,0,7,88,17,7,-4,-9,12
,-1,-6,-61,-12,-6,-9,-1,-14
,-1,14,78,11,4,1,7,13
,-5,-16,-83,-25,-8,6,0,-3
,-9,5,28,14,-2,5,7,22
,14,-11,6,-3,-2,-7,14,-1
,-10,7,38,5,-1,-5,-5,-14
,2,-7,-63,-2,0,6,0,-21
,-3,4,30,2,4,-5,-7,27
,-5,1,18,11,3,4,5,1
,-3,-12,-66,-23,-9,-8,-1,-2
,1,6,61,9,6,-9,2,8
,-1,-6,-21,-6,0,3,-6,-16
,-4,0,-19,1,4,2,5,7
,3,1,34,6,0,-4,1,-12
,-4,-2,-20,-15,-5,-3,-3,10
,2,-7,-13,-1,-4,-1,-3,-3
,-4,2,18,0,0,0,1,-25
,-2,-1,-15,10,4,-2,0,17
,-5,-3,17,8,-4,1,-4,-7
,4,-3,-8,3,-1,1,-3,-10
,1,-2,17,-5,0,1,3,12
,-1,-4,-16,-4,-5,0,-3,-4
,-1,4,13,4,2,0,-2,-3
,-2,-3,-12,-5,-2,1,-3,-13
,-4,-1,1,5,4,3,0,10
,2,-3,-17,-3,1,0,-2,-4
,1,0,24,3,-4,-2,-1,3
,-6,1,-18,-2,-2,-2,-4,-4
,-5,2,5,-15,-7,-3,-3,-2
,1,2,-2,6,2,1,-1,1
,2,0,12,6,-1,-5,2,-6
,1,-3,-13,-2,-2,0,0,-2
,-3,3,10,2,0,-2,3,4
,-1,-1,0,-7,-2,-5,-2,-7
,-1,0,-6,-1,-1,-2,-1,6
,1,-1,-17,-2,-5,-1,-3,-6
,-1,5,4,6,-2,2,3,1
,1,0,7,5,-1,-2,2,6
,-1,1,4,-1,2,0,-1,-3
,0,-1,-6,-5,0,-1,-1,-4
,0,-1,-1,-5,0,0,-2,1
,-3,-3,-5,-6,2,-2,-3,0
,-1,0,7,0,-3,0,-2,0
,-3,-3,-3,-3,-1,-2,3,-4
,0,-3,-7,3,1,1,0,3
,-1,2,4,-1,-4,0,1,-3
,-1,3,10,-2,-7,-2,-2,-2
,1,3,-14,1,5,1,-1,3
,-1,0,6,7,0,-1,1,0
,-3,-3,-12,-7,-3,-2,-1,-2
,-2,-2,7,4,1,3,-1,0
,1,-1,4,-2,-2,0,-4,-3
,0,0,0,0,3,-3,-1,-1
,1,-2,-4,3,0,-1,-1,-3
,2,2,-4,-1,0,4,-1,1
,-2,-5,2,-2,-1,2,-1,-1
,-2,-3,-8,-4,0,0,0,0
,1,0,3,1,-1,-2,-1,3
,-1,-1,6,6,1,-2,-2,-4
,0,-1,-2,-3,-3,-1,-1,-2
,-1,-2,-12,-8,-6,-2,2,0
,-1,-3,-4,-1,1,0,1,0
,-3,-1,-4,-5,2,-3,2,0
,1,1,3,0,2,3,-2,-1
,-3,-1,1,3,-6,0,-2,0
,-1,-3,3,-1,2,1,-4,-2
,-1,-2,-3,-5,-4,0,-1,-2
,1,0,-1,1,0,-3,-1,-1
,1,1,6,3,2,-2,-1,1
,3,-1,-5,0,-2,-1,1,0
,0,0,1,0,0,-4,2,-1
,-3,0,3,0,-2,-2,0,-2
,-2,0,-11,-4,-3,0,0,-1
,-3,-2,-2,-2,-1,-1,-1,-1
,-3,-2,0,-4,0,-1,-4,-1
,0,0,1,-1,-4,-3,0,-1
,1,3,6,1,0,2,-1,-3
,-1,1,3,1,-2,0,0,-1
,-1,-2,-13,2,-2,3,2,-1
,0,-2,7,-3,-1,-2,1,1
,0,-3,2,0,2,0,2,2
,-1,-2,-13,-6,-4,-4,-2,0
,-1,1,2,2,0,-1,-5,1
,-2,-1,-3,-3,0,1,-3,0
,-2,-1,-14,2,1,1,-3,-1
,0,0,0,2,-1,-1,0,-2
,-1,0,-8,-1,0,-2,1,-1
,0,-2,2,2,0,0,-3,-2
,-2,-2,0,3,2,-5,-2,0
,0,1,10,0,0,3,-1,-2
,1,-1,0,-1,1,-1,-1,0
,0,-1,-8,-2,-3,3,1,0
,1,-1,8,-4,0,3,1,-1
,-1,-5,-6,-6,0,-1,1,0
,-1,-2,2,-4,-1,1,1,-1
,-1,-2,1,0,2,3,-2,0
,-2,0,3,2,-2,2,-2,1
,-1,2,0,0,-3,-3,-3,-1
,3,0,2,3,-1,-3,0,-2
,0,-1,-15,-2,0,-5,2,-4
,-3,-3,9,2,-3,-1,-2,-3
,0,-1,1,2,-3,0,1,-2
,-1,-1,-3,-1,-4,0,-1,1
,-1,0,-2,3,1,-3,-2,1
,-2,2,11,-1,-1,-4,-2,-2
,0,-1,-6,2,-2,-1,-2,-1
,-1,0,4,-2,1,-1,-2,-1
,0,-2,-3,-7,-1,0,1,0
,-1,-2,-6,-4,0,1,2,0
,-1,1,-3,-4,4,2,2,0
,-1,-1,-5,-2,-2,-1,0,-1
,-1,0,-4,1,-1,2,-2,-2
,1,-1,-1,-2,-5,-1,0,-1
,-1,0,2,4,0,0,-4,0
,-1,1,0,-4,-6,3,-2,0
,-1,-2,1,-3,2,0,1,-1
,2,-1,-5,-3,1,0,1,-2
,1,-4,1,-5,-2,-1,-1,-2
,-2,-3,-1,-2,0,-6,-3,1
,-1,-3,4,1,-2,-4,-4,-2
,0,-2,-4,0,0,-4,-3,0
,-2,0,-1,2,0,0,0,0
,-3,0,-1,2,2,0,-1,0
,1,1,-1,0,-4,-3,2,-1
,-1,1,0,-1,-3,1,2,2
,-3,1,0,-1,1,-1,1,1
,0,-2,-4,0,0,-1,1,-2
,0,-1,6,0,-2,-3,-1,-3
,0,-1,2,1,0,0,-3,-1
,-1,3,1,0,1,0,-2,-3
,-2,-2,-8,-1,3,3,-1,0
,-1,-2,0,-4,2,-1,-3,0
,0,-2,-1,0,-3,2,0,1
,0,-1,1,-1,-2,2,-1,-1
,-1,-2,2,-2,-6,0,1,-3
,-1,-1,-2,-4,-1,-1,-1,-1
,0,1,0,-3,-2,-1,0,-2
,0,-2,-3,-2,0,-3,-1,0
,0,0,-1,4,4,-2,0,-1
,-1,0,-7,4,1,-1,0,0
,-3,-2,-1,1,-1,1,-2,1
,-1,-4,1,1,-2,-3,-1,1
,1,-3,1,-1,-3,2,-2,-2
,1,0,4,1,-2,1,1,-1
,-2,-1,-5,-5,-1,-1,0,-2
,-2,-1,1,-2,1,0,0,-1
,1,-1,-5,-2,1,-1,0,0
,0,0,-2,-1,-2,0,0,-2
,1,1,1,0,0,-3,0,0
,0,-1,-1,-3,-4,-2,-1,-2
,0,0,1,1,0,0,0,0
,-2,-4,0,-2,3,2,-1,-1
,-2,-3,-6,-5,-1,0,-3,-3
,-2,1,-2,-2,-4,-2,-3,-2
,-2,1,-3,-3,-3,-1,-2,-1
,-1,-1,0,0,-4,-1,2,0
,0,-2,1,1,-1,-2,2,0
,1,-2,-1,0,3,-3,2,0
,-1,0,1,-3,-1,-2,-1,0
,-1,-3,-1,-1,-2,3,-1,-1
,-1,-3,-1,0,2,4,0,-1
,0,-2,0,3,-4,0,0,0
,-2,-1,-2,-2,1,0,0,-1
,1,3,1,-2,-2,-1,0,-1
,0,2,-2,1,2,-1,1,0
,0,-2,-3,1,1,1,1,-2
,-4,0,1,2,-3,-2,-1,-2
,-4,-2,-2,-4,0,-3,-2,-1
,1,-2,-1,-2,-1,-3,-1,-2
,-1,1,-1,-1,-4,-4,0,0
,1,-1,-1,2,-6,0,0,1
,1,0,-10,1,-2,-1,0,0
,0,0,3,3,4,-1,0,0
,-1,-1,-2,-1,0,1,1,-2
,-1,-3,-2,-7,1,0,0,-2
,0,-1,-2,-3,-2,1,-3,-1
,-2,0,-2,-2,-3,-1,-2,-1
,1,0,1,1,0,-2,-2,0
,-1,1,7,1,-1,-4,-2,0
,0,-1,-2,-1,-2,-2,0,0
,-1,1,-4,-1,-2,0,-3,-1
,-1,-2,-4,-2,-2,2,0,1
,3,-1,5,0,0,-1,0,1
,0,-1,-3,0,-2,0,0,-1
,0,0,0,0,0,-2,1,-2
,1,-1,1,-1,2,-1,-1,-1
,-1,-1,-1,2,-2,-1,-2,-3
,-1,0,0,-3,1,0,-1,0
,-1,0,1,-2,-1,1,-1,2
,-1,0,-1,-3,-5,0,-1,1
,-1,-2,-1,-2,-3,2,-1,0
,0,-3,-1,1,0,-1,1,-2
,-2,-3,-1,-2,1,-5,0,-3
,0,-2,-3,-1,1,-4,-2,0
,0,-1,-7,-1,1,-2,-2,-1
,-1,-1,-7,-5,1,-2,-1,0
,-2,-1,-5,-1,-4,0,-4,1
,-1,-1,-10,0,1,1,0,0
,-1,-4,-7,0,-1,0,0,0
,-2,-1,5,5,-1,2,-1,0
,1,0,-3,1,-4,2,-1,-1
,-2,1,9,-2,-3,-3,1,0
,-1,-1,-2,-4,-1,1,-1,-1
,-1,0,7,-2,0,-2,-1,-2
,-1,0,0,1,0,0,0,-1
,-1,1,-1,3,-2,-1,-2,-2
,-2,-2,1,-1,0,2,-1,1
,0,1,5,1,-3,-2,0,1
,-2,-2,3,-1,-2,-1,0,0
,-1,0,-1,-5,2,-1,0,2
,-3,-1,2,2,2,-2,-1,0
,-3,-3,-1,6,0,0,-2,-1
,0,-1,3,3,0,0,-1,-1
,2,-4,3,-1,-1,0,-1,-3
,0,0,0,-2,1,1,0,-1
,0,0,-6,-5,-3,0,-1,0
,1,-1,-1,-4,1,-1,-1,-1
,-2,-2,-1,0,-1,4,-1,1
,-3,1,1,-2,-3,-2,0,0
,-2,0,-2,-3,-2,-2,-1,0
,0,-2,-1,-2,-3,-3,-1,-2
,1,0,-4,-4,4,-1,-2,-3
,0,-1,-2,5,4,0,0,-3
,0,-4,0,-1,-2,0,-2,-3
,-2,-2,-1,0,-1,-2,-1,-1
,-3,0,-2,-4,-4,1,-2,1
,-1,2,2,-3,-4,-5,-1,1
,0,1,0,0,1,-3,-1,1
,1,-1,1,0,2,-1,0,-1
,0,-4,-2,1,-3,-3,0,-1
,0,-1,-2,0,-4,-3,-1,-1
,-1,0,-1,1,-2,-2,0,1
,-2,0,-3,-1,-3,1,0,-1
,-2,1,2,3,1,2,1,-3
,-3,0,-5,-2,0,-1,0,-1
,-3,-1,-2,-4,0,0,0,-1
,-1,-1,-1,0,1,0,-1,-1
,0,-2,-1,-1,0,-1,1,0
,-1,-3,1,0,-9,0,1,1
,1,-2,1,2,3,2,-1,0
,-1,-2,0,0,0,0,-2,-1
,-4,-2,-2,1,-3,-2,-2,-2
,0,1,0,-3,1,-1,-2,-2
,-1,0,-3,-5,-4,0,0,-1
,-1,-2,0,-5,-2,-3,1,-2
,0,0,1,-1,3,2,-1,-1
,0,-2,-5,0,0,0,-1,0
,0,1,-6,0,-3,-1,0,-1
,-2,1,0,1,-1,-2,-2,2
,0,0,0,0,1,-5,0,1
,0,-2,-2,0,6,-1,-3,0
,1,0,2,-2,2,-2,-3,-1
,-1,-1,0,-1,-2,-2,-1,-1
,0,-1,0,0,-4,-2,-1,-1
,-1,-1,-4,1,-3,0,-1,1
,0,-1,-2,4,-2,-2,1,1
,-2,0,-2,0,-3,-1,1,1
,0,2,1,3,-1,0,-2,0
,1,1,1,1,1,0,-1,-1
,0,-1,-4,-6,2,-3,-2,0
,1,-2,-1,-4,-2,2,0,0
,-2,-2,-1,-2,3,-1,0,-1
,0,-4,2,-2,0,1,0,-3
,-1,-1,1,2,-2,-2,1,-1
,1,-2,-9,-3,-1,-6,-2,0
,1,-2,0,1,1,2,-2,-2
,-2,-1,1,-2,-2,-4,-2,0
,1,1,1,0,0,2,-1,-2
,-1,0,1,1,4,0,-2,-3
,0,0,-8,-5,-1,-1,-1,0
,-1,0,4,-3,-2,-2,-1,0
,-1,2,-3,2,3,0,-2,0
,-1,0,1,2,-5,1,0,-1
,-2,-1,-1,-2,-2,-1,1,0
,0,-2,-6,-2,-6,0,2,-3
,-1,-2,1,-1,1,-1,-1,-2
,0,-3,-2,3,2,4,1,1
,0,-1,-1,-1,-2,-2,0,1
,0,-3,4,0,1,0,-1,-1
,0,-2,-3,-2,-4,-5,-1,0
,-1,-3,-1,-7,-6,-8,-1,-2
,-1,-3,0,-2,-2,0,0,0
,-1,2,5,4,4,1,1,-1
,-2,2,8,5,2,2,-2,-1
,-3,-3,4,-3,3,3,-3,-2
,0,-2,-19,-5,-7,-1,-4,-1
,1,2,10,1,0,-2,-1,0
,-2,-3,-3,0,0,-1,1,-2
,3,-1,-1,2,3,-1,0,0
,1,6,5,3,1,-1,-2,0
,0,0,-6,-7,-2,-1,-3,0
,0,1,5,1,-3,-3,-1,0
,2,0,-8,-3,1,0,0,-1
,-3,-4,-1,-3,-4,-1,0,-2
,0,-1,-6,1,1,-2,-2,1
,-2,-1,2,-2,-3,-2,1,2
,-2,0,-1,4,-2,2,0,-1
,0,-1,-7,-2,2,-2,-2,-1
,-2,-2,4,-3,-2,-3,0,-1
,-3,-5,-5,-2,0,-1,-1,-2
,0,-1,4,2,1,-2,0,-1
,-1,-1,1,-1,-1,0,-3,0
,0,-3,0,3,-4,-2,-2,0
,-1,-3,1,-2,-4,0,0,2
,0,-1,-11,-1,-5,1,0,-1
,-1,0,4,-6,-1,0,1,-1
,-2,-1,-7,0,4,1,-1,-2
,-2,0,9,2,2,1,-3,-2
,-1,2,-6,-1,-2,-5,-1,1
,1,-3,-1,1,0,2,-1,-2
,-1,-2,-2,-2,1,-1,-1,-2
,2,-3,0,0,-1,-2,0,-2
,0,-3,4,-2,-4,0,-2,-1
,-1,-3,-3,0,8,-2,2,0
,0,1,2,0,-1,1,1,2
,-1,1,-2,-2,-3,0,-1,-1
,-2,-2,-9,-6,1,-1,-1,-1
,-1,-1,2,5,-3,0,-2,1
,-1,-1,-5,-2,-1,-3,2,0
,0,-1,-5,-3,-1,0,0,0
,-2,-2,3,1,-2,0,1,-1
,-2,-2,1,3,0,-2,0,0
,-2,-1,-4,-4,0,-3,-2,-1
,-1,-1,-2,-2,1,0,-1,-1
,0,2,6,2,-1,-2,-2,-2
,-2,1,5,0,-6,-2,-2,-1
,0,-1,1,-1,-2,-1,0,-1
,0,-2,-4,-4,-1,-1,1,0
,-2,1,3,1,0,1,-2,-1
,0,-2,-1,0,0,-2,2,0
,2,0,-8,-2,0,1,-2,1
,-1,-2,-6,-1,1,0,-1,-1
,-1,0,-2,-2,-1,-1,1,-1
,0,1,3,0,-1,3,0,-2
,-2,-1,2,1,-4,0,1,-3
,-1,-1,-9,-3,-1,3,0,0
,-2,-2,-2,-2,0,0,0,-1
,0,2,13,7,-1,-3,-2,0
,0,-3,-1,-8,-7,-1,-2,0
,0,1,-1,2,3,-6,-3,0
,1,0,0,-2,3,-1,-2,-2
,0,0,-4,-1,-1,-2,-1,-1
,-1,-2,-1,5,5,2,-1,0
,-1,0,4,1,-3,0,0,-1
,-1,0,-2,2,0,2,-1,0
,-1,-1,-3,-2,2,0,-3,-3
,-1,0,-6,-2,-5,-1,0,0
,0,-1,4,-4,-4,-2,0,0
,1,-2,3,0,2,-1,-1,-1
,-2,-1,0,1,-2,-1,-1,0
,0,0,-3,-1,0,-1,0,-1
,-1,2,-2,1,0,2,2,-1
,-2,1,-1,0,-2,-2,2,1
,-1,-1,2,-4,0,-3,0,-1
,0,-1,0,-3,3,4,-2,1
,-1,1,1,-1,0,-2,-1,-1
,-1,-1,1,-1,4,-3,-1,-1
,-1,-3,-6,-4,-8,-2,-2,-1
,-1,-1,-2,3,-3,-3,-2,-2
,1,1,-1,5,4,2,1,1
,0,1,2,0,-1,1,0,1
,-2,-1,-8,-1,2,1,-1,0
,-3,-1,2,-3,-1,-1,1,-3
,-2,-4,-3,-2,-5,0,0,0
,-1,-1,-1,-2,-4,-1,-3,-1
,0,0,1,0,-1,0,0,1
,0,-2,-5,-1,-3,0,-1,2
,2,-1,-3,2,-1,-2,0,0
,0,-1,1,-1,0,0,-2,1
,0,-1,2,-2,3,0,-1,-1
,-2,-1,3,1,4,-4,-1,-2
,-1,0,0,-4,-1,-2,-1,-3
,-1,1,0,0,-9,-5,0,-3
,-1,-1,-4,-2,4,0,-4,-1
,0,-2,0,-2,1,1,-2,-1
,-1,-2,3,-1,-3,-2,-1,0
,1,-2,-8,-4,-1,0,-1,-1
,1,0,-2,-1,1,-3,2,-2
,0,1,3,0,-3,0,0,-1
,0,1,-1,2,0,0,-2,-1
,-3,-1,-2,0,-3,-1,-2,0
,-2,-2,-2,-1,-3,-1,-1,0
,0,-1,-6,-3,-3,0,-1,0
,-2,-2,-1,0,-1,-2,-1,0
,0,1,2,2,4,2,1,0
,0,-2,-1,1,-1,1,-1,1
,-2,-1,3,-1,0,0,-2,0
,1,-3,-2,-1,-2,1,0,0
,0,-2,0,-1,0,-2,1,-2
,0,-1,0,-1,-3,-3,-1,0
,-1,-1,-1,4,-4,-2,0,1
,-1,-1,-3,-2,-4,-1,-2,-1
,-2,1,1,-3,7,1,0,1
,-1,0,3,0,0,0,3,-1
,-1,2,-4,0,-1,-3,-2,0
,-1,0,-4,-3,0,0,-2,-3
,0,-2,-4,2,-3,1,-2,0
,-2,-2,-3,-4,-3,-2,-3,0
,-2,-5,-2,-3,3,1,0,1
,0,-2,1,-1,-1,0,-3,1
,-1,0,5,-2,-3,2,-4,-1
,0,0,4,0,-1,1,0,-1
,-1,1,2,2,0,-1,2,-1
,-1,0,-7,-3,5,-2,1,-1
,-2,-1,-7,-2,3,-3,3,0
,-1,-2,2,4,-2,1,1,-1
,0,-2,-6,0,-1,-1,-1,0
,-2,0,4,-1,-1,0,-3,-2
,-2,-1,0,2,0,2,-4,-1
,-1,-1,-4,-9,-2,0,-2,1
,-1,0,2,-2,-1,0,-1,0
,-1,-1,-5,-2,-1,-1,0,-1
,-1,-2,-4,0,-4,-1,0,-1
,-1,0,-2,0,-2,-4,-1,0
,1,0,1,-3,-4,-1,0,0
,1,1,-1,-2,-3,-3,0,2
,0,-1,0,-2,-4,0,2,-1
,0,-1,-1,-2,4,0,1,-1
,-1,-4,1,1,3,-1,-3,-1
,-3,-2,1,-1,-4,-5,-1,-2
,-1,0,-2,0,1,3,-2,1
,0,1,-1,0,-3,-2,-1,-1
,-1,2,-3,2,-1,1,-1,1
,1,-1,-2,0,0,1,0,1
,0,-2,4,2,-2,-1,0,0
,0,-4,-3,0,-4,-2,-2,-1
,-2,-1,1,0,0,0,-2,-2
,-1,-1,2,3,6,1,-1,-1
,-1,0,0,-4,-4,0,1,-1
,-3,-1,-2,-3,-2,-2,1,-1
,-1,1,-3,-6,-3,-2,2,-1
,-1,1,-1,-3,0,1,1,-1
,0,0,-2,-2,2,-1,1,-1
,-2,-1,0,0,-2,0,0,-1
,0,-2,-1,1,-5,-3,-2,0
,-1,-1,-2,2,1,-2,0,1
,0,-1,0,0,-2,-2,-1,0
,-2,-1,1,2,-4,2,-1,0
,-1,-1,1,-1,2,0,-1,0
,-2,-2,-2,-1,-3,2,0,-1
,-2,-4,0,-2,-1,-5,-2,-2
,-2,-2,1,0,0,-1,-1,0
,2,1,-3,-2,-2,2,-2,-1
,0,-1,-1,0,-1,1,-1,0
,1,0,1,1,0,2,-1,0
,-1,0,-5,-3,2,0,-2,0
,-2,-3,-2,0,1,-3,-1,-1
,0,-3,-1,-6,-2,-2,0,-2
,0,-1,-2,-6,-2,1,1,0
,0,2,0,-1,1,-3,0,1
,-1,3,1,0,-2,-2,-1,-2
,-1,0,4,1,-1,-3,-2,-1
,0,-1,-3,1,-4,0,-3,-1
,0,-3,-1,-2,-2,1,1,-1
,-1,-2,-2,-1,0,0,0,-3
,-1,-3,-2,1,-1,0,1,-1
,0,-1,0,-1,3,1,-1,-1
,-1,0,0,0,-4,-2,-1,0
,0,0,-3,0,6,-1,-1,0
,0,-3,0,-2,-1,-1,-1,0
,-3,0,-1,0,-1,-3,2,0
,0,1,-2,2,1,1,0,0
,-1,-1,1,2,-3,-1,-1,0
,1,0,-2,-1,-6,0,-2,-1
,-2,-2,0,-3,-1,-2,-2,-2
,0,-3,-3,0,8,3,0,-3
,-1,0,3,0,0,0,0,-1
,1,1,-2,-1,1,-1,0,0
,-1,0,2,-3,-5,-5,-3,-1
,0,1,-1,0,-2,-1,-1,0
,1,-4,-1,-5,2,0,1,-1
,-2,-1,-1,-1,-2,-2,-1,-1
,0,-1,2,-1,-2,0,0,-1
,0,-5,0,0,-3,-1,-2,-2
,-1,-1,-2,-1,-4,-3,0,0
,-2,0,7,3,0,1,0,1
,-1,0,-20,-3,0,-3,-1,-2
,0,1,0,-1,0,-1,-1,0
,-2,-1,-1,-1,-4,-3,-1,-1
,0,-1,-1,-1,-1,-1,0,0
,-2,-1,2,-2,2,0,-1,-2
,1,-1,-3,-3,-6,-1,-2,0
,0,-1,0,-4,-1,-4,-3,-1
,-1,0,-3,-1,9,4,1,-2
,-1,0,2,-1,-1,3,2,-1
,0,0,-3,0,-4,-1,1,-1
,-2,-1,4,4,-2,0,1,0
,-2,-2,1,1,-5,-2,-1,-1
,1,-1,-3,5,2,-3,-1,0
,-2,-2,2,-5,-3,-2,-1,-1
,-2,1,4,-4,-3,-1,-2,-1
,-1,-3,-13,0,2,-1,-1,0
,-2,-2,-6,-4,-2,2,-1,-1
,-1,0,1,2,0,1,-2,-1
,0,2,-1,1,0,-1,0,0
,0,0,7,-3,2,1,-1,0
,1,1,7,-1,-3,-1,0,-1
,1,-2,-8,-3,-2,-3,0,-2
,1,0,-3,-3,2,0,0,0
,-1,0,-5,-2,-2,0,-2,0
,-3,-1,-2,-2,-2,-2,-3,0
,-2,1,1,-2,3,1,-1,-2
,0,-1,3,0,-5,-3,-2,-2
,1,-3,-7,-2,-2,2,-1,-1
,-1,-3,-1,-1,0,-1,0,1
,-1,1,9,2,2,-1,-1,1
,-1,0,1,0,0,1,0,1
,0,-1,-15,-1,-7,-5,-3,-2
,1,-2,0,-1,-2,0,-2,-1
,-1,0,14,1,-2,-1,-1,0
,-1,-3,-22,-4,-2,-3,-2,0
,-1,-3,2,1,0,-1,-1,-1
,0,1,-5,-1,4,-1,0,-2
,1,0,10,0,0,-1,0,-2
,-1,2,14,-1,-2,0,-2,0
,-1,-2,5,-3,4,-1,-1,-1
,0,-2,-4,1,0,1,0,1
,0,1,16,5,3,-1,1,0
,-1,-1,-11,1,5,2,1,-1
,1,4,5,-1,-2,-1,2,1
,-4,-2,7,0,-5,-3,1,-2
,-2,-3,-24,-4,1,2,0,0
,0,0,12,6,0,1,-3,-2
,0,-1,-7,-8,-6,-3,-1,-1
,0,4,22,1,1,2,0,-2
,1,-2,-6,-3,-5,0,-1,-1
,0,-1,-1,4,2,1,-1,-1
,-2,-2,-6,-2,-1,-3,-2,-2
,1,1,11,0,-4,-5,-3,0
,-3,-4,3,-6,-2,-2,-2,-1
,0,-1,-3,-4,-1,1,1,7
,0,1,6,5,4,1,1,-7
,-1,1,16,7,-2,0,0,1
,-1,-5,-27,1,-3,-2,0,0
,0,2,22,-1,-3,-1,-1,-4
,-2,-2,24,-4,-4,-1,0,4
,-1,-4,-33,-4,7,0,-2,-1
,0,0,2,4,3,0,0,-2
,-2,0,0,-3,-5,-4,-2,1
,-1,1,8,2,-2,2,-2,-1
,-1,-4,-12,2,6,3,-2,-2
,0,-1,3,0,-2,-2,0,0
,0,0,-3,-4,-2,0,-1,-2
,-2,-3,-10,-3,-3,-3,0,1
,0,-1,-4,-2,2,1,1,-1
,0,1,-44,6,2,-1,-1,2
,-3,-5,7,-8,0,-2,1,1
,1,0,25,2,-5,-3,-2,-8
,0,-1,-24,-1,-5,-2,-3,2
,-1,1,16,-7,-1,0,-3,-4
,0,0,29,-2,3,-3,1,4
,-2,-2,-27,-5,3,-1,0,-1
,0,1,38,-2,-5,-2,-4,-4
,1,5,48,1,-1,-2,-1,4
,0,-2,-9,5,1,2,0,-3
,-3,-3,8,-1,-1,1,0,2
,-1,-7,-50,-5,-3,0,1,-1
,-2,-4,-2,-1,-4,-1,0,-2
,-2,1,-2,5,3,-1,0,-4
,0,-1,-25,3,3,-2,1,0
,1,6,53,7,5,2,1,3
,-1,-1,-33,-15,-2,-3,-1,-3
,-1,-7,-43,-5,-3,-3,-1,-3
,0,6,18,7,-1,-1,-1,1
,-2,3,9,1,0,-2,-2,-2
,-1,1,19,4,1,1,-2,0
,0,-3,-48,-4,-1,-2,-1,-2
,2,1,28,5,-2,0,-1,0
,-1,0,-1,-8,-4,0,0,2
,-2,-7,-42,-1,-1,-2,-3,-1
,1,1,7,4,1,0,-1,-6
,-1,-5,-16,-11,-3,0,-1,2
,1,-1,-16,3,-1,-1,0,1
,-1,6,43,8,0,-3,0,0
,-1,-5,-12,-7,1,0,-1,0
,-2,-8,-99,-8,-1,0,-1,-4
,0,3,87,6,2,0,-1,3
,-1,-12,-61,-15,-4,1,2,0
,0,8,58,11,-5,-1,-1,-1
,-1,3,24,5,2,-2,2,-1
,-2,-6,-34,-11,-6,-3,-2,1
,-1,2,10,3,-2,0,-2,-2
,0,6,27,-3,2,2,-1,-3
,-2,-14,-29,-2,-1,1,-3,3
,-1,-2,-35,-2,-1,-1,-2,-3
,-1,2,63,2,-3,-2,0,2
,-1,-4,-33,5,-3,-1,0,2
,-3,12,85,0,-3,-9,-4,-5
,-2,-10,-54,-3,2,4,0,1
,0,-1,24,-5,2,-2,-1,-2
,0,-7,-57,-4,-1,-1,-2,0
,1,3,26,9,-1,3,-2,1
,1,6,23,-3,-2,-3,-1,-4
,-1,3,-16,4,2,4,2,0
,-2,-8,-29,-3,-3,0,-1,-4
,-1,-2,-9,-1,1,1,2,2
,0,-5,-6,-1,-1,1,0,-2
,2,5,22,8,-1,-3,1,-1
,-1,-2,-21,-7,-2,-2,-1,4
,0,0,-29,-5,3,3,1,7
,-1,-2,8,-3,-1,-3,-3,-13
,-2,-3,9,2,0,-2,-1,0
,-5,-9,-33,-11,-2,-5,-2,-4
,1,3,22,0,-3,-2,-1,3
,0,0,7,6,0,2,0,2
,1,1,16,-1,2,-1,-3,-2
,0,4,-9,3,-5,-4,-2,1
,-2,-4,0,-1,1,0,0,-5
,-2,-5,-7,0,-3,-1,1,1
,-2,-8,-33,1,6,0,0,-3
,-3,6,95,9,5,3,0,2
,-1,-2,-91,0,-3,-4,-2,-1
,-2,3,3,-3,3,-1,-2,-1
,-1,-7,-34,-15,-9,-2,-1,1
,0,3,22,-2,1,0,1,-1
,-3,-3,20,0,-2,-1,-2,-5
,-1,2,-8,-2,-3,-5,-1,1
,0,-2,-3,2,2,-2,-2,-2
,0,-5,-15,-7,0,-1,0,13
,0,2,16,-7,-1,0,-2,-21
,-1,-3,2,9,-1,0,-1,3
,-1,4,22,2,-6,-3,-2,-1
,1,3,8,4,0,4,-1,-3
,0,-4,-19,1,2,1,2,6
,-1,-1,-14,-8,-1,4,0,-1
,-2,-3,-13,0,7,-2,0,-3
,-1,-4,-10,-4,-3,-5,-1,-3
,-1,-1,-19,-4,3,0,0,3
,0,6,48,2,-4,-2,-3,-2
,-3,-10,-55,-8,-7,-1,-3,1
,1,0,1,1,0,-2,0,-2
,0,-1,32,6,2,-1,2,2
,-3,2,50,5,-1,-3,3,10
,0,1,-29,-7,-4,-4,-3,-16
,-2,-2,-1,-1,2,0,-1,-3
,-3,0,32,2,-5,-5,-3,-3
,3,5,-14,-6,1,2,1,3
,-1,-7,12,-3,6,2,1,3
,0,0,7,11,3,0,-1,-3
,1,-2,-15,-1,-10,-1,-1,4
,1,-1,1,-5,-6,2,-4,-9
,-1,4,-2,4,12,2,-1,4
,-2,-7,-30,-7,-6,1,-1,-3
,-1,-4,4,-7,-11,-5,1,3
,0,0,4,-3,1,-4,-1,-2
,1,-5,-33,-3,-3,1,2,0
,1,5,17,9,9,2,2,13
,-1,1,20,7,8,0,0,-19
,2,4,-14,6,-3,-10,2,-2
,-1,0,10,-5,-17,1,-12,-2
,-1,0,-4,-2,12,7,-2,1
,0,0,-16,2,3,4,1,4
,-2,-3,-45,-4,6,3,-5,-2
,0,1,48,-3,-3,-7,4,1
,-1,-2,-16,-12,-27,2,0,-4
,1,8,72,5,6,-2,-1,1
,-1,-7,-14,4,5,-1,0,-1
,-1,0,7,4,3,-1,2,7
,-1,-5,-25,-5,-7,-7,-5,-11
,-2,1,3,-13,-1,1,-9,1
,-1,-2,-3,-3,-8,-4,4,11
,-4,-3,2,-3,-12,-17,-16,-16
,2,3,18,4,17,10,9,2
,1,0,-8,5,3,0,-2,9
,0,-1,-31,1,3,10,-4,-17
,0,3,0,1,-13,1,11,7
,-2,2,45,-2,-7,-10,-7,-5
,-2,-10,-66,-5,2,-3,0,-3
,-2,-4,3,0,3,-8,-5,4
,2,4,13,-3,-6,2,-2,1
,-1,-6,-26,-3,-1,2,1,-4
,1,4,1,7,12,12,3,3
,-2,-1,12,2,-1,-27,3,0
,-5,-5,-38,-10,-7,8,-24,0
,1,8,23,5,-2,8,1,-10
,-1,-9,-22,-9,-10,-6,-17,-3
,-2,1,-1,1,1,-13,17,-7
,4,0,22,4,4,15,23,5
,3,-3,-1,-3,3,32,8,23
,-4,2,-7,1,-1,28,12,-12
,-1,2,26,-2,-3,-20,-27,3
,0,-1,-6,2,3,-18,16,11
,-6,-7,-13,-3,-2,-55,-8,-7
,-6,-1,11,-2,-5,41,5,-36
,7,5,35,0,2,49,40,18
,3,5,-18,-1,8,-40,18,-3
,2,-1,11,8,4,71,-3,17
,-2,-12,-5,-2,-15,-65,-40,14
,7,-1,-6,-6,0,39,-19,11
,-10,0,8,6,1,-9,13,-52
,0,4,-2,-3,-3,-7,1,-5
,-5,-10,-19,-3,-8,-26,23,12
,-1,-8,-17,-3,-4,-5,36,4
,1,4,4,-5,13,9,-54,15
,6,15,6,9,1,3,-4,-11
,-1,-2,-5,5,1,-22,7,-1
,-8,-2,-6,-3,5,15,-20,-6
,3,4,22,4,-18,-43,12,10
,-3,-9,-31,-14,-14,29,3,-9
,10,10,24,-2,1,11,11,17
,-3,-13,-29,-5,2,-19,-8,-1
,1,4,10,16,14,-1,-13,-16
,-3,0,32,-11,-11,-33,-4,-2
,6,-3,25,9,2,50,8,4
,-6,-5,-36,-11,-2,-21,-9,-1
,-3,0,-3,3,12,35,-13,-1
,2,3,7,5,3,19,37,10
,-3,-9,-46,-14,-10,-22,-28,-21
,0,12,18,5,-21,-14,6,7
,-2,-15,-7,-2,-3,-5,-2,-9
,0,-6,-11,3,19,-6,16,3
,-2,8,14,-3,2,2,-22,1
,4,5,27,-3,-6,26,15,5
,-2,-5,-31,-4,-11,-14,-16,5
,0,17,8,-1,-2,-5,16,-3
,-6,-16,-11,-1,-5,-9,3,3
,-3,-4,-4,3,6,-2,-12,-15
,-1,5,11,5,22,29,7,8
,-4,-1,-4,-4,-15,-34,-7,-6
,4,12,14,-12,-15,-6,1,3
,-1,-4,3,16,34,5,-7,-7
,1,-1,3,7,-3,27,19,5
,-4,-10,-7,13,15,-8,-15,1
,-2,3,2,-3,-13,-33,-12,-3
,-4,0,9,-10,-15,-22,-13,-11
,2,2,-50,5,2,38,0,4
,-5,-6,-3,-4,-6,-51,-11,-6
,1,8,0,-1,4,30,12,9
,-2,-7,-8,-20,-16,-21,-18,-6
,-2,-7,20,-6,4,-20,3,3
,5,3,1,5,7,51,11,6
,-2,-2,-8,12,20,-18,1,-3
,-2,-8,-4,0,-7,-2,-5,-3
,0,1,3,-15,-40,-15,-3,2
,-2,-1,-1,1,8,-19,-23,-6
,0,-1,-4,1,20,13,6,4
,1,1,-17,-4,-9,-7,4,-2
,-2,-2,10,-1,7,7,-4,-1
,0,-2,15,0,14,-6,-5,-3
,0,2,-16,0,-4,-1,1,0
,1,-2,-14,9,-9,9,2,-1
,1,0,-5,-1,1,-20,6,0
,-2,-4,4,-3,-10,26,-6,0
,-4,-6,26,-2,1,-11,7,-5
,-3,-2,-2,-6,-5,-13,-27,-3
,-2,0,7,0,-2,26,23,2
,-2,-6,-2,-2,3,-11,-2,-2
,0,-4,-18,-6,1,7,3,0
,1,1,-13,1,-24,0,-11,1
,0,-1,7,0,1,-30,2,2
,1,0,-2,2,13,13,-14,-1
,0,4,15,1,4,36,20,10
,-1,0,-6,5,14,-4,0,-19
,1,-2,-6,-7,-11,7,0,7
,-3,-8,1,-10,-26,-46,-25,-16
,-1,-6,-12,-7,-1,7,27,-2
,4,5,14,9,11,24,37,9
,5,0,6,6,11,-5,-43,6
,-12,0,-2,3,10,16,24,-3
,3,3,0,6,2,54,25,5
,-3,-2,0,-7,-7,-13,-23,-12
,3,-1,6,-4,-14,-7,2,-7
,3,-5,-7,-3,-8,-13,10,9
,-8,-3,-2,-2,-4,-9,-22,-3
,3,0,3,-2,-2,-13,4,18
,-1,-1,-13,-2,-2,1,14,-12
,10,-4,-26,-2,15,15,-12,11
,-13,3,8,3,-7,-12,-4,-13
,1,2,5,-1,3,-4,-4,1
,-5,1,7,-2,2,5,2,11
,-2,-7,-5,-2,-11,-3,-7,-25
,9,5,7,2,-3,16,-2,16
,-2,-12,-42,-8,-11,-11,1,-18
,-4,1,4,-2,-1,-7,-4,-1
,2,0,-1,2,16,14,13,10
,-8,-3,8,5,-9,-30,26,-10
,-3,3,16,3,13,-3,-36,23
,26,2,-1,-3,-2,24,23,-7
,-1,1,2,-5,-22,-39,-9,4
,1,-2,-3,-5,-1,-4,17,-5
,-3,2,5,6,-1,8,20,4
,6,-6,-8,4,12,17,-8,9
,-16,-1,3,-6,-14,-14,7,-7
,6,2,-8,-6,-2,-47,-61,-4
,9,2,2,-1,3,38,52,18
,-4,5,6,2,8,23,-4,0
,7,2,20,0,-24,-1,2,-3
,-7,-5,-30,-10,13,18,4,13
,1,5,11,14,26,40,2,-7
,-10,-8,0,4,-8,-52,-24,-8
,-4,8,4,-4,-4,1,9,-3
,-4,-1,19,-7,-3,-19,-36,-3
,10,-5,10,-1,3,-16,31,30
,1,-11,-74,-10,-6,-24,-10,-44
,19,2,12,-5,-10,-2,-19,-4
,13,0,5,5,7,73,-2,13
,-20,0,14,2,0,-27,24,5
,-1,2,22,-4,-14,-83,-4,-46
,5,-1,-18,-5,-1,-2,-12,-35
,12,3,11,6,8,-22,34,-1
,-49,-20,-10,-6,0,40,-1,-66
,-25,-1,15,6,4,28,-52,-24
,35,0,-11,3,17,41,107,69
,-37,-4,-11,-7,-28,-86,-90,-97
,15,-4,-9,-20,-46,-105,-90,-15
,-8,1,6,5,41,107,73,70
,-2,1,-4,13,3,13,-73,32
,15,2,4,6,6,0,-20,31
,-19,-1,8,5,23,-8,26,7
,13,3,45,4,-16,-64,-48,56
,9,2,-49,-10,4,56,-8,-53
,0,-9,31,-17,-29,-49,17,50
,17,8,13,-6,-9,23,34,-3
,34,0,-3,-11,11,21,-47,70
,-30,5,34,17,1,5,-23,-19
,-7,-4,-25,4,5,-35,-52,-48
,27,6,-28,4,14,48,22,49
,-55,-12,21,-14,-28,-83,-50,-115
,-37,-21,-35,-4,-15,-1,-8,-19
,10,15,10,5,0,32,-67,-20
,18,-2,15,7,-4,-29,-120,-67
,-78,-35,-49,-25,-38,-24,127,-20
,61,19,10,2,-5,13,77,25
,-45,-5,8,13,28,-80,-6,-25
,-5,-22,-18,-10,-1,127,127,-115
,31,18,8,5,-2,24,-106,-1
,4,-16,-10,0,-17,-86,46,77
,-43,-20,-7,-10,7,4,122,-14
,12,4,-3,-7,-4,-87,15,29
,-30,-3,2,-3,-4,-50,-1,-79
,25,15,30,7,8,21,19,-52
,8,12,32,9,2,31,7,10
,-6,-5,-41,2,-6,-70,-62,44
,6,-8,-31,-5,21,67,30,3
,-17,9,62,8,-14,-66,-64,-13
,21,1,7,-7,-11,52,7,48
,-15,-2,-29,-13,9,-22,-46,-30
,35,8,2,9,-3,-44,-60,14
,-35,-3,0,-7,-7,-29,-81,45
,-33,-5,-25,-5,1,-12,97,107
,18,21,33,21,37,78,81,-2
,-18,-3,1,8,22,0,-37,53
,-1,-8,4,-7,-24,-54,-43,-42
,18,1,-22,1,-12,-16,29,-9
,-19,-5,22,-2,-13,0,-119,23
,-10,1,-36,-6,7,23,16,-9
,-10,0,20,-6,20,64,28,-30
,27,0,-6,-3,-19,-13,-57,-35
,-12,-6,-39,1,-5,6,-71,-2
,15,8,13,15,5,-7,80,-19
,-10,-8,5,-1,0,19,-54,14
,24,2,-11,-6,1,18,6,-36
,14,7,24,-6,-3,-19,-18,18
,10,6,17,-12,-42,9,64,15
,-1,0,-25,16,46,-10,7,-13
,4,-1,32,25,40,37,93,64
,-4,-8,-2,-10,-8,-39,-68,-75
,54,8,3,-8,-5,15,-64,7
,20,5,19,-13,-30,-71,-90,3
,52,1,-46,-8,4,19,-127,-79
,14,9,16,2,-19,-37,127,-19
,43,6,-5,4,1,90,46,90
,-12,-3,-1,0,5,-7,85,-22
,7,2,22,13,12,10,-86,83
,83,12,-27,9,25,37,53,12
,17,2,19,-4,-5,-61,-36,-84
,13,-3,-4,3,13,101,56,8
,-7,-7,-35,-15,-35,-27,-1,-6
,-29,-2,21,2,-9,4,-5,32
,-21,0,36,16,47,11,1,14
,-2,-1,-16,7,0,-4,50,11
,-6,3,-24,-6,-3,10,45,-21
,-16,-8,-24,-8,-10,-16,-46,-6
,-10,5,64,17,-2,-34,-87,-12
,-27,-17,0,-10,-25,-92,-128,-70
,-8,4,52,4,-4,38,50,77
,2,-13,-97,-24,-16,8,-63,11
,-21,-6,-28,-11,-8,-16,-92,11
,14,-1,-10,-1,33,105,-55,63
,63,15,16,-2,-19,-68,15,-34
,-93,-15,39,8,19,-24,-81,18
,10,-1,-7,6,-4,-36,-48,-71
,31,9,-12,-8,-21,-56,-39,-13
,-46,-23,-2,-11,13,43,-91,-10
,30,12,42,38,48,101,8,42
,-22,-5,-2,-4,-19,-37,-63,-20
,-33,-3,-13,-3,0,-32,-2,-8
,-44,-23,-50,-13,-44,-29,-36,-87
,-6,-7,-19,-17,-4,-23,96,0
,-66,4,41,8,27,49,99,-51
,18,-3,-24,-13,13,44,-15,14
,-3,2,4,10,17,14,6,-9
,6,10,45,25,22,-6,8,-24
,24,7,27,4,-16,5,50,-4
,-16,1,-4,-10,-14,-27,13,27
,9,4,-57,-1,-3,21,5,59
,0,-8,-13,-30,-38,-46,-24,57
,31,2,-10,-10,10,14,67,34
,25,13,39,5,8,3,116,53
,-24,8,31,3,-4,17,-105,22
,76,19,46,28,19,47,102,-24
,-16,-8,-71,-1,9,33,-13,51
,-15,-4,-15,-3,-4,-25,-47,-88
,17,5,22,-1,-6,5,48,6
,-28,0,19,-8,-17,-33,-42,25
,-28,-16,3,-16,-17,-53,8,-58
,5,-10,-49,-5,17,-20,-2,22
,-4,-4,-28,11,-25,-22,2,17
,-11,-6,35,-7,24,-17,-11,-45
,5,6,20,1,-18,8,24,24
,-28,-5,-28,0,-11,3,62,-6
,9,0,46,2,22,-27,13,-25
,-12,1,-42,-3,-23,-2,45,40
,15,7,7,-6,-1,-15,70,27
,-3,-9,-35,-14,-10,59,-124,-49
,-15,9,23,7,36,-14,-40,15
,20,11,26,1,-17,-14,-7,-13
,13,-3,15,-1,-17,17,-108,14
,-7,-3,-39,-5,15,8,106,44
,-6,-15,-24,-15,-31,-59,-77,-26
,-28,-5,16,12,38,74,-3,-1
,-12,-3,-27,4,13,-12,20,9
,-20,-8,17,-7,-34,-60,-12,-29
,52,15,36,3,-10,0,-105,64
,38,20,-28,-3,-24,0,43,22
,-16,-11,-3,-19,15,-23,-94,22
,9,13,-11,35,25,-10,10,7
,-28,-6,10,-3,15,-17,14,-7
,-8,5,48,-1,-23,-13,-33,10
,-8,-7,-17,-26,-24,-4,-16,-31
,14,7,54,-8,-1,32,-64,28
,5,-4,-11,-1,8,-11,61,-22
,12,7,8,20,26,20,72,10
,11,4,-2,20,8,9,-44,35
,17,1,2,1,-8,-19,76,-21
,-27,-13,-30,-30,-17,29,16,1
,-55,-22,-15,-27,-17,-56,51,12
,38,11,0,25,26,25,35,43
,13,3,34,5,-3,-1,0,-8
,3,-17,-62,-13,-10,34,17,-26
,-8,-3,-41,-28,-16,-32,-106,-13
,7,-8,-7,14,-1,22,22,-9
,-13,6,32,9,9,23,-5,-3
,12,15,30,25,27,-17,127,-26
,2,-7,37,1,4,-9,-80,8
,-3,-1,-21,-14,-29,-7,127,-3
,-5,-4,-31,-21,-7,-13,-69,55
,10,9,20,8,18,19,31,-3
,18,0,-11,8,6,29,-17,21
,-3,11,63,13,5,3,-38,-20
,-13,-17,-88,-8,-14,-16,64,35
,-4,-3,5,-10,3,-9,-35,-28
,-6,-1,-2,0,-15,-6,-20,3
,15,-7,-8,-4,17,3,47,-11
,15,7,56,2,-1,5,1,-38
,-2,-1,9,-4,-11,-9,7,-58
,-16,-11,-44,5,4,1,77,-28
,-10,-3,-15,-10,-4,-2,101,35
,-12,10,-4,-2,3,14,-70,-62
,-3,-3,-13,15,-4,-29,-12,35
,-9,-4,8,-3,1,-4,-38,-100
,-15,5,6,2,-1,18,-109,0
,-48,-6,17,-2,11,6,44,48
,-52,-3,16,-2,-16,-12,-38,19
,-7,-6,-21,9,36,56,-6,107
,1,5,2,3,-11,-13,-71,-36
,-6,-6,53,8,-9,-10,44,-38
,16,-5,-36,-17,2,26,84,88
,30,0,-14,8,-11,-39,48,-54
,-6,-3,-6,-6,10,34,18,63
,8,2,-22,-4,-3,3,-67,87
,-13,-2,12,0,-27,-17,-45,-16
,21,-8,15,-8,-6,-12,22,-23
,33,5,-10,5,16,4,-22,-25
,1,-1,23,11,4,1,-27,-45
,17,1,6,-5,-8,3,-82,25
,-9,8,33,-1,9,-22,-128,-50
,-44,-12,-15,-6,4,22,64,-25
,-4,2,10,3,-13,-30,-41,21
,-8,-10,-11,4,10,12,-1,2
,-9,-1,-3,0,-15,-16,-78,-27
,13,3,4,-9,-2,2,-11,45
,6,-8,-26,-2,14,7,-3,24
,19,4,17,7,-3,-1,-17,-57
,-22,-5,-38,-10,-22,-16,0,48
,-6,1,21,11,4,1,-51,-11
,-9,-8,-41,-11,3,15,123,53
,23,8,14,-1,-6,-8,-10,-6
,0,-3,18,-8,5,10,-8,30
,-13,0,-14,10,0,-11,13,-60
,-3,3,-22,8,2,10,-79,-2
,3,-7,1,2,13,25,-37,5
,-5,2,-19,-4,-11,4,-2,25
,13,5,-5,3,-5,-13,-47,9
,7,5,78,14,8,3,-22,35
,-2,0,-40,0,11,-8,19,-6
,3,-1,-20,-13,-12,2,-9,-4
,-21,-19,-36,-17,-12,-46,-42,-10
,-22,-1,22,4,13,20,-122,22
,33,13,26,14,19,49,111,13
,0,0,19,8,5,-20,-61,34
,-27,-4,11,-12,-21,2,-15,58
,15,-6,-30,-10,14,-18,-19,-60
,12,10,34,-5,5,-2,73,1
,-7,-15,-63,-1,-11,-59,-115,-18
,-11,5,1,14,3,90,124,15
,26,7,37,2,-23,-14,-48,-29
,-15,-3,-28,7,21,1,23,9
,-4,4,23,-8,-12,4,0,-19
,47,15,22,1,-9,-23,-31,-20
,-5,-15,-50,-20,-26,-11,40,-42
,6,4,1,-9,-21,5,-59,55
,11,6,50,22,44,27,84,75
,-11,-8,-59,4,2,-8,-13,10
,35,2,9,-9,-13,-6,-53,31
,7,2,-1,5,18,-14,15,-14
,29,3,-15,4,-10,3,-3,-31
,11,6,22,8,6,5,-56,13
,7,7,-9,-7,-8,-4,51,24
,-24,-22,-13,-10,-4,-29,-34,-11
,11,7,21,6,0,31,106,32
,25,-2,-14,-11,-13,-37,16,-44
,-37,-5,-37,-9,-4,-11,-95,-94
,8,1,8,6,19,10,66,17
,-39,-13,22,0,-4,-8,-43,-26
,-21,-13,15,-14,-20,-36,-34,28
,4,2,12,7,1,-20,-13,-22
,-15,4,-7,-19,-38,21,-68,-63
,0,-2,28,4,30,-3,-47,-83
,1,-8,-41,-3,-12,-11,9,32
,13,3,17,5,15,47,-20,-28
,-12,4,37,15,-4,-20,-14,5
,-1,-8,-31,-15,-30,-17,-13,62
,14,1,16,-3,11,6,28,-40
,15,-3,-52,3,19,2,45,16
,5,2,3,-6,-14,-9,-23,-76
,5,8,36,2,0,15,21,-70
,-4,-3,-28,6,17,-5,-51,18
,1,-2,22,9,5,10,127,57
,-28,-5,-10,-2,-7,-1,-48,-32
,-28,-1,-20,-7,-10,-12,-96,-33
,-50,1,24,-8,8,24,29,17
,-4,8,51,0,-11,7,-13,-11
,6,-10,-20,-7,17,5,-32,64
,-31,2,-19,3,-6,5,22,-10
,15,4,-1,8,9,3,4,-9
,-9,-4,11,-1,3,-23,-16,9
,7,1,33,-2,-8,1,-80,-8
,16,3,-21,1,10,2,-29,43
,-1,3,43,4,-2,24,108,-11
,-24,-11,-93,-15,-7,-6,-19,-26
,0,2,14,1,-7,-32,-76,-7
,-14,1,11,-1,-3,23,-46,0
,-3,-5,-22,-5,-5,-36,-63,-1
,10,0,48,-4,-13,-10,-24,0
,-16,-1,-28,0,14,13,21,19
,35,2,-7,-5,-2,-11,36,59
,30,8,58,7,-3,-6,-87,-10
,-19,0,12,5,10,19,85,47
,2,-11,-50,2,-19,-10,-12,-21
,-23,-7,-29,-22,-13,-33,-27,-32
,0,4,-8,12,43,48,42,-7
,9,3,23,2,-9,-21,-81,15
,-12,1,31,1,-11,14,119,78
,31,6,-12,10,10,10,22,28
,4,-4,6,-5,-21,-19,-24,6
,-31,-4,-17,-2,14,8,-31,-13
,1,2,-12,-11,-7,-12,-40,-5
,-15,2,19,-1,-17,-12,35,-9
,-5,-10,-28,-3,7,-5,-33,31
,18,7,36,14,6,7,61,-12
,12,4,25,-2,4,-10,-55,-39
,48,7,-45,5,3,13,127,-40
,-9,-20,-33,-19,-2,-9,-45,-32
,-16,-5,12,2,-2,3,-97,1
,5,5,-38,7,-2,4,23,-10
,-3,2,64,10,12,12,-14,-5
,8,8,30,7,-11,-9,76,-2
,-3,-9,-83,-5,11,13,-16,-22
,43,-4,35,-1,6,2,96,51
,3,6,-9,2,-16,12,15,5
,-4,-1,-42,-7,18,-16,-17,-34
,-3,-5,26,-6,-27,-8,57,36
,17,10,29,5,4,7,-48,-8
,16,-10,-30,-13,-17,-38,-89,19
,25,8,26,5,14,14,-86,-9
,-7,3,6,-2,-19,3,40,-1
,1,-2,-30,-7,8,-12,0,17
,-5,-4,21,3,-2,9,-112,-5
,-4,8,9,15,11,-2,94,5
,11,-5,-36,-11,1,-22,-19,11
,-14,-9,-11,2,-13,6,3,47
,-31,-11,-4,-14,-8,6,11,-29
,10,0,19,-3,3,-4,-54,24
,5,1,7,16,13,3,75,0
,5,-3,-54,-13,-7,-4,-54,-25
,1,-4,-4,-2,-8,-5,4,51
,-5,1,24,2,-14,2,-10,-15
,2,7,28,-4,8,-13,-11,-8
,-12,-17,-46,-11,-4,-9,-47,-43
,-13,3,8,11,10,3,53,25
,39,-3,-55,-3,-10,-2,-2,34
,7,9,39,-6,-7,10,-35,-11
,-16,-1,38,5,2,-5,28,12
,-5,3,18,2,19,-3,-62,-21
,0,-13,-79,-6,-12,20,18,2
,14,8,4,11,27,19,52,10
,5,-3,3,-7,-5,0,-33,-47
,-10,1,9,7,10,22,77,9
,-10,3,26,-3,-27,-40,-42,-10
,12,4,14,-2,6,-1,3,45
,25,1,-20,10,14,31,-33,68
,18,4,19,-6,-2,7,33,14
,-25,-1,62,-5,-18,-12,-82,-12
,-15,-12,-109,-12,-14,1,34,4
,-22,7,32,6,16,0,13,3
,-3,-9,-1,-3,-6,-9,-53,10
,-8,-11,-57,-9,1,12,23,3
,49,11,45,7,9,2,-78,-68
,-27,-7,8,4,-1,-3,-21,-12
,-7,-1,-10,-3,2,-4,-15,-13
,-1,3,46,4,-7,-16,-79,-64
,-10,-6,-32,-4,-22,8,19,-26
,-5,-12,-25,-12,-1,7,117,5
,19,-7,-65,-6,4,-10,16,18
,-3,8,20,-2,8,4,3,20
,6,-5,5,-3,-9,-7,-53,16
,-4,9,44,2,-16,-7,-8,-42
,-15,4,19,6,7,-2,-35,15
,4,-14,-57,-15,2,2,17,22
,-10,9,44,10,3,-3,80,1
,11,5,-42,-3,3,3,-17,-13
,-5,-3,13,-9,-12,-16,-45,56
,6,6,1,2,13,36,77,26
,-6,-3,-14,13,11,-12,-33,-2
,-33,-7,8,0,10,1,15,34
,-26,1,25,10,-1,-13,-65,-45
,26,6,-31,-2,-6,-3,28,-28
,13,-6,2,-14,-18,-2,-40,13
,4,10,21,3,-4,-5,-51,13
,30,-16,-41,-7,3,-1,6,-36
,-23,7,44,4,1,-8,23,-14
,-5,-2,-11,-8,-4,29,-15,-17
,-10,1,-7,2,7,-6,-24,-26
,4,0,-7,4,8,18,28,5
,-6,-3,-4,-7,-16,-8,-11,0
,-23,-6,10,0,-7,-11,20,23
,-5,-4,-9,0,19,5,-8,-33
,-4,-4,-19,1,-7,7,65,-8
,-3,-5,-8,0,3,-5,-46,11
,-28,0,33,2,-1,-1,-2,-42
,26,1,-17,-6,-11,-20,-37,62
,4,0,24,-2,18,-1,31,-2
,-31,-13,-48,-1,-20,3,-82,-22
,-1,-4,-2,-5,-6,-15,-38,-15
,-7,-9,-18,-5,-7,-7,-9,-9
,-19,-4,13,-9,-15,-16,22,-16
,-23,0,11,-3,18,5,-45,-34
,-15,0,-3,-1,2,-14,-113,-5
,-5,1,30,19,22,20,27,12
,-2,-2,-5,-6,-25,-2,-19,-55
,7,1,6,7,-9,5,64,31
,17,1,21,6,21,-11,-24,30
,17,-1,-48,-10,-12,2,-27,-22
,-17,6,35,-6,-13,5,84,39
,15,2,15,8,-5,-20,-20,50
,26,-1,-71,-7,9,27,127,2
,61,6,14,-7,-12,-18,-7,-74
,2,1,-12,-2,-4,6,-100,27
,3,2,35,-1,-4,-9,-6,25
,-6,5,29,20,6,21,29,14
,-2,6,-4,-7,14,8,-51,23
,12,-2,-38,-2,9,9,-1,27
,7,3,19,-2,-14,-35,54,-27
,-12,-5,13,-8,-6,7,-53,-1
,-24,-5,-34,7,-8,-2,-16,16
,26,6,45,11,1,4,26,-21
,-9,-5,-68,-9,15,1,21,47
,-10,3,20,4,1,-8,52,0
,-6,-1,0,-9,-12,4,49,37
,10,7,19,7,0,-6,-49,-7
,18,2,-19,-11,12,18,111,-6
,12,0,14,0,-4,-16,-72,70
,-31,-9,-2,-4,5,-15,50,-66
,-32,-11,-85,5,1,6,-12,-12
,-9,-11,-2,-2,-4,-3,-93,-36
,-16,-4,-6,-6,-3,-5,-48,4
,-14,1,32,0,-20,-16,84,-6
,20,0,7,-8,6,10,-46,35
,-2,4,11,11,2,11,21,-10
,10,-4,-9,0,-6,-6,-123,-39
,3,8,54,3,7,0,-23,20
,-25,-7,-67,-5,3,12,123,-21
,-7,-6,11,-2,-14,-17,-44,-7
,49,9,-8,2,-12,-4,-85,-93
,14,2,13,-6,-8,17,21,39
,2,3,8,12,1,-12,-21,-7
,-48,-8,-11,-8,16,8,-3,-4
,-3,5,-3,7,2,8,14,-54
,25,-6,-26,9,2,-17,85,56
,-1,9,21,-3,15,5,-107,-10
,-10,-1,19,4,-23,-3,-37,-39
,3,-9,-35,-13,-11,-27,-19,-21
,-9,6,30,4,5,46,-53,-115
,-1,-10,-10,-6,-5,-34,68,76
,27,8,-28,1,8,2,-100,39
,-22,-3,8,-9,-1,4,113,102
,9,5,-6,7,15,6,-57,-89
,-12,1,20,4,-14,-11,-90,-42
,31,-5,-1,-15,2,18,-111,85
,22,3,12,15,26,-16,103,-46
,-21,-5,-30,6,4,-8,-31,24
,21,10,58,-3,-10,22,75,7
,-2,1,-29,3,-2,-15,51,-12
,-13,-3,-5,3,-5,23,-110,6
,5,-10,18,-7,10,-36,-102,55
,-21,7,5,0,1,25,67,-103
,3,8,12,0,-6,15,63,-59
,-26,-5,30,-1,-12,-21,110,37
,-6,-12,-72,-13,-6,12,-75,-31
,-71,-17,18,-7,-8,-3,-86,-47
,-58,-19,-7,0,-3,13,107,72
,-26,12,-19,3,15,41,96,-7
,35,15,83,-6,-19,5,-31,43
,-5,-13,-26,-8,25,-26,62,127
,-21,5,12,9,1,3,73,39
,20,6,20,6,1,-10,0,65
,-48,-6,-32,-3,-11,67,-64,-29
,54,9,-4,-6,-11,-15,-3,-37
,57,-2,20,-9,2,-35,-82,-86
,-58,-11,21,-9,-14,-37,-99,65
,21,12,-20,11,19,-23,-84,-37
,13,9,49,6,-24,41,63,-44
,17,-4,-3,8,22,6,-6,22
,23,-1,6,-8,-5,-6,30,2
,-27,-19,-61,-16,-13,20,-77,-13
,37,10,-14,3,17,-4,-72,8
,4,13,1,13,-3,-3,62,-80
,-7,-12,-18,-4,4,-6,-128,39
,49,17,89,5,-7,-5,127,8
,22,-1,-64,4,3,16,-52,-70
,6,-7,-1,-4,-8,-22,-54,46
,46,6,-24,-6,11,-5,85,59
,5,8,5,18,1,-32,20,-13
,-14,-21,21,-22,-60,-63,-44,23
,-34,-4,-3,6,26,-6,-42,-81
,-51,-2,33,16,13,43,27,-123
,20,-10,-53,-10,-7,-33,91,65
,-2,6,-12,8,18,4,74,57
,-33,2,-9,-15,-30,-22,-111,55
,0,9,67,-3,-23,0,17,9
,-58,-16,-56,-13,4,2,4,51
,74,10,-10,1,14,-18,-97,14
,9,8,17,1,-14,-5,125,-4
,-4,-3,-17,-8,-12,26,-89,-87
,3,-11,6,2,-4,-27,-72,61
,-5,1,3,1,17,26,-33,9
,-16,-5,67,16,9,-20,-113,-41
,58,3,-32,12,17,-2,28,-114
,-69,-5,-10,-7,4,34,-53,31
,5,-11,-11,-13,-28,-51,9,12
,85,15,9,3,1,11,27,-67
,-55,-21,-36,-12,-14,-10,31,104
,-4,6,47,9,-6,1,-60,1
,-22,-10,-9,-2,8,1,-72,-63
,20,11,-11,7,11,39,127,-4
,60,-5,-58,-23,-19,-43,-4,36
,30,-1,10,-11,-3,-25,62,-91
,-9,12,47,7,-5,17,-18,31
,11,0,-7,5,22,28,-128,54
,-9,7,-1,-5,-6,-32,45,-105
,3,0,21,8,9,34,-29,-115
,-22,-8,-27,6,8,-6,40,-4
,-16,-18,9,-14,-19,-12,74,55
,0,-1,1,12,20,-1,-88,26
,16,5,49,-8,-33,-27,123,41
,12,-6,-84,-5,10,39,-76,95
,19,24,74,-1,8,-12,43,-98
,-36,-17,-44,-5,-24,-4,-29,19
,27,-10,-29,-7,-5,-7,-4,-29
,67,28,25,8,24,-31,-64,-128
,-41,-9,29,-1,-15,-24,71,-26
,22,7,2,23,37,76,0,77
,13,13,10,17,15,3,-47,-43
,-42,-6,7,-5,-24,-19,44,-3
