,20,3,-33,-57,-1,-7,-9,7
,-7,-16,3,24,-10,-10,-16,13
,-13,38,3,-20,5,3,-6,-13
,33,20,13,-9,-2,-9,-7,4
,-80,-20,1,17,-6,0,18,16
,-21,-17,-1,-25,-8,2,-26,-26
,104,55,13,23,-3,3,10,4
,-75,27,-7,-2,20,0,-8,2
,-36,-62,-8,-15,-10,-11,-18,-12
,51,49,5,22,-8,-3,-9,-8
,48,-22,19,-47,2,6,18,17
,26,42,-3,50,12,8,18,8
,-17,10,15,12,3,-8,-16,-25
,-71,-1,-1,5,-2,8,12,-10
,-4,6,-1,-1,-23,-13,-6,-11
,-38,-18,-14,-30,0,3,-12,-6
,89,23,-4,-10,21,9,12,7
,-14,-39,5,2,-8,-7,-18,-18
,-56,33,2,1,6,2,15,33
,-39,-23,10,8,-13,-7,-19,-5
,13,22,-2,5,-12,-7,17,2
,42,53,31,20,-6,1,14,18
,-90,-104,-42,-28,1,1,-4,-13
,43,-12,-2,6,4,1,3,-6
,-24,32,6,-4,2,4,-3,7
,-2,-15,7,-26,-12,-6,-5,-27
,-59,54,7,45,7,5,-28,-21
,74,-13,-15,-31,-12,-9,37,53
,-67,-60,-41,0,10,10,-8,-16
,-17,-14,-8,-11,11,5,-7,-14
,12,46,14,21,2,-3,24,30
,10,3,-3,-27,2,-4,-30,-36
,-27,-13,20,5,-15,-1,9,0
,11,-1,-10,6,5,6,12,7
,34,-18,-14,-2,8,-4,-14,-1
,-18,10,0,-1,-7,0,19,17
,12,4,17,-27,-2,4,-5,-2
,-47,60,14,40,0,-2,-13,-22
,-8,-87,-16,-18,8,5,24,18
,-35,18,5,-1,9,2,7,-10
,-53,-11,18,18,-3,-6,-11,-12
,99,19,-28,-28,-4,-2,-4,17
,-27,20,7,11,2,2,-2,-17
,-58,-14,1,15,-6,-3,13,14
,43,-64,-8,-8,-15,-3,5,12
,41,14,8,16,3,6,13,6
,-52,30,-2,-32,-11,-7,-22,-47
,63,12,-21,23,18,13,18,17
,23,52,18,-4,-5,-10,-9,6
,-128,-59,-15,9,-5,-6,-8,-8
,82,47,15,14,2,1,-22,-22
,-82,-3,5,-20,-15,-5,2,-6
,28,-12,0,-51,-7,-4,9,3
,16,2,-19,58,26,-3,-8,4
,-21,-33,8,-17,-21,-1,5,0
,125,59,14,9,14,7,-6,-11
,-18,25,-7,24,7,6,7,1
,28,-15,18,-48,-11,0,-13,-15
,-12,-6,-2,20,3,-9,11,29
,39,-10,17,6,-2,-4,6,2
,19,3,-5,-21,-1,-2,-16,-14
,73,6,33,46,-13,2,3,7
,55,42,-70,-38,20,2,2,-3
,-95,-93,3,-7,-20,-5,-8,-15
,-23,13,-1,21,10,4,12,16
,-7,48,11,-51,-15,-1,1,-19
,29,-17,4,9,3,5,5,22
,-44,60,16,22,13,0,-9,0
,59,-12,-15,-6,-11,0,-8,2
,27,-35,-8,-30,-14,-12,5,9
,-46,-9,1,7,4,4,3,-7
,64,30,-5,30,-10,-3,17,14
,-40,17,11,4,15,0,-26,3
,-59,-32,-22,-21,1,-1,27,31
,81,78,27,25,-8,3,5,0
,-65,-48,-28,-22,-11,-9,-25,-22
,43,9,17,38,-13,-4,16,9
,-48,-11,-21,-40,7,-2,-5,5
,-3,-27,-13,-39,-8,-8,-11,-22
,-38,-15,24,42,2,4,-10,-10
,57,34,-33,-35,-10,-1,-1,4
,-28,-37,1,0,6,1,-13,-24
,19,46,0,-18,-22,-7,5,1
,-39,-39,6,-5,23,8,18,8
,24,-22,4,13,3,-8,-18,-15
,53,49,66,19,0,5,23,19
,-73,1,-44,-4,-2,-2,-14,-6
,-38,-39,-29,-20,-13,-5,5,3
,71,-24,3,-27,-4,6,-2,-12
,-65,3,-7,38,13,6,-6,-1
,48,35,41,19,9,0,-10,0
,61,3,-21,-7,-4,-1,32,22
,-49,-24,-21,-22,5,2,-11,-32
,43,28,-4,-10,-17,-7,-1,5
,-60,-22,26,45,7,8,7,-8
,11,-23,-48,-36,-4,-8,8,2
,95,62,-7,27,17,10,11,29
,-65,-18,-5,13,-10,-4,-13,-10
,-33,35,-25,-21,4,5,-1,-6
,86,28,33,-28,-15,-9,-37,-9
,16,-70,-32,25,-2,-11,4,-1
,-7,55,38,-6,3,6,-24,-23
,-52,-62,-24,23,-5,-1,82,71
,22,78,7,-13,0,10,-5,-4
,6,55,30,-8,8,-6,-28,-28
,84,-42,-3,11,5,3,-4,-13
,-4,43,13,-48,-19,-4,2,-12
,-55,-48,-30,17,18,2,1,1
,8,66,40,23,-12,2,-5,0
,-94,-52,-4,-32,-3,-8,-5,0
,2,25,-18,18,24,3,-11,-2
,33,53,51,19,-6,3,-7,-10
,-95,-70,-35,-13,10,11,24,0
,113,1,-31,-18,1,-10,4,-5
,-47,-29,34,8,-5,-4,-5,5
,100,10,-1,0,-15,1,0,-13
,9,70,15,27,0,1,-2,-8
,-75,-32,-10,-15,5,2,22,35
,59,-16,12,57,4,2,-34,-41
,-31,-15,13,-31,8,7,6,-8
,3,52,-2,20,3,-9,7,23
,20,-40,-39,-50,-11,-5,15,13
,55,7,17,48,15,0,-15,-7
,-103,-29,37,-7,-17,-4,-23,-23
,16,-68,-66,18,-14,-5,13,15
,88,17,-13,-29,14,-1,-22,-14
,-51,2,20,-69,-26,-9,13,25
,-2,-25,11,91,18,8,4,-21
,-8,3,-5,-62,1,-5,-12,-13
,-18,31,24,63,-4,-4,-19,-30
,-8,-54,-23,-74,-18,7,34,18
,-88,5,-29,-5,11,-8,-5,16
,14,14,26,-17,2,0,0,11
,-66,-61,-39,52,-6,1,-16,-31
,4,22,40,14,1,-2,-20,-36
,50,-2,-39,-20,11,2,28,50
,-5,-22,-12,-11,-6,1,-9,14
,-13,17,76,33,-11,-1,21,14
,-6,0,-99,-36,22,3,-29,-36
,8,-83,10,23,-15,-6,1,0
,20,117,33,-7,9,0,-18,-34
,32,-43,-35,-21,4,15,41,73
,1,-49,39,51,-5,-2,-6,4
,-38,46,-4,-5,-2,3,-3,-3
,-5,35,37,21,-8,0,-4,2
,23,-33,-48,-17,4,-2,-6,-10
,33,55,12,-12,8,0,-13,-24
,122,36,-36,-47,-11,-3,16,20
,19,-108,11,12,-15,-1,15,20
,18,15,46,26,26,2,-9,-15
,-1,-15,-16,-11,2,3,-16,2
,18,4,-23,-42,-16,0,8,5
,-47,4,16,72,-3,-4,-5,-1
,68,-38,-18,-44,-5,-5,-24,-28
,-4,-18,-10,13,7,-5,17,29
,-10,122,64,-9,5,6,-16,-6
,-49,-106,-11,-23,-17,-8,1,-7
,8,36,-15,12,0,0,29,20
,-128,8,17,29,1,-2,-24,-33
,99,-19,-32,-13,12,-1,-9,-10
,45,63,-3,-47,8,14,31,33
,-103,-62,-15,-22,-22,-12,-31,-48
,89,9,12,9,-20,-10,15,28
,-92,-23,11,36,8,-6,-9,-9
,23,-22,-29,-17,4,0,9,-6
,-79,71,2,-33,-5,-4,-2,26
,8,-76,7,15,-2,0,-14,-17
,-92,-9,-9,-15,-30,-16,3,15
,-13,12,16,13,7,4,2,5
,98,53,-21,-9,22,4,-21,-10
,21,-28,4,23,-3,2,31,58
,-38,-4,-18,10,7,4,10,-19
,-86,-22,11,-17,-14,-5,-3,-25
,33,3,-19,20,1,-4,-12,-31
,-8,-8,-11,-8,17,16,40,36
,-16,51,-8,-9,-6,-11,-11,-26
,-59,-28,9,9,-4,-9,-8,-3
,-42,-1,10,-40,-16,-4,-17,-25
,24,12,11,18,17,6,11,0
,-43,13,-20,-11,2,2,14,60
,3,-25,-4,-11,-13,-6,-13,-26
,59,21,44,85,6,2,18,12
,38,-34,-63,-85,-5,-6,3,-1
,62,3,22,27,6,3,-13,-8
,-8,25,1,-25,0,7,-21,-14
,-8,36,1,7,4,-4,-8,-11
,32,-8,8,-6,-17,-3,6,4
,-16,-77,1,-4,-1,8,-13,-23
,35,36,11,61,-16,-14,-3,2
,5,-64,-35,-50,7,5,29,39
,-98,39,5,16,11,-4,-39,-19
,77,-34,19,0,-10,-5,20,22
,-14,14,-36,-16,7,-3,-23,-21
,14,6,32,31,-14,2,29,32
,51,20,-33,-43,-6,-6,-20,-25
,-16,-58,5,8,6,2,-22,-12
,3,15,4,-5,13,0,9,1
,-4,44,-8,43,9,9,19,-2
,-38,-70,17,-10,-13,-9,-12,-5
,-22,23,-10,-22,2,6,7,16
,61,46,36,42,-1,-2,-5,-4
,-75,-83,-46,-81,-13,-1,-11,-8
,50,21,-2,20,3,7,8,-13
,-22,34,32,37,4,0,-6,-17
,10,-35,-35,8,-2,-3,-4,6
,-58,18,31,-27,-3,0,9,-11
,14,44,30,10,-4,-1,-22,-8
,-87,6,-25,2,18,-1,30,2
,-29,-69,-27,-46,-9,-9,-1,15
,31,6,39,52,-6,-5,-13,-7
,-10,34,-37,6,9,7,16,-6
,1,3,-12,-46,-16,2,-5,5
,47,11,2,-17,17,4,-10,-12
,-74,44,9,53,-2,2,11,8
,126,13,25,13,2,-4,1,17
,31,-3,37,8,-3,1,-18,-19
,-70,-13,-42,-2,22,8,-10,-17
,-32,-82,-24,8,6,-3,31,32
,43,19,-13,-7,-11,-3,-11,-15
,-24,31,-19,-20,-1,-3,-6,-6
,76,34,37,-20,-14,1,-6,3
,44,4,13,38,6,7,-1,-2
,-2,12,7,29,30,14,10,9
,12,7,-4,1,-14,-7,9,-18
,92,-30,19,29,-4,6,24,41
,106,114,-22,-42,-13,-8,-31,-19
,-79,-80,33,-23,-7,0,32,20
,-13,12,-23,33,7,-1,-26,-35
,-75,-9,-29,-26,8,2,-6,-23
,64,-35,4,-36,-13,-2,40,41
,-31,22,21,43,4,8,10,19
,83,18,8,-1,-8,-9,-22,-20
,-14,48,1,-24,-7,-3,19,38
,-13,-23,-2,14,17,-1,-27,-28
,-98,-25,-14,-31,-16,-16,-26,-12
,78,5,19,8,3,3,-3,11
,-4,46,-9,14,1,4,25,12
,118,38,7,-28,5,7,-2,20
,98,-19,-9,-21,-23,-15,-19,-12
,80,62,10,44,29,3,-5,26
,-105,-104,1,10,7,4,-13,-18
,62,-8,-3,-20,-10,-9,-2,-11
,-39,57,19,35,10,9,16,12
,16,-72,-17,-24,-19,-11,-8,-19
,45,94,11,-3,-10,3,9,23
,-128,-40,-23,1,17,-1,-6,-20
,93,-3,3,-26,-5,1,-3,-10
,-31,17,-6,17,8,-10,1,-3
,89,10,4,58,12,5,13,-11
,87,80,22,-24,-10,8,5,19
,-127,-50,-22,-18,-21,-16,-10,-19
,-58,9,-9,-9,14,12,4,-10
,-44,-77,1,-21,-4,-13,-13,1
,42,66,47,86,-6,-1,-14,27
,-71,-35,-25,-37,-6,7,23,-10
,84,-68,-8,-45,-8,-3,-4,9
,101,28,-8,52,-2,-6,-10,14
,-100,-76,-36,-25,12,-7,-17,-32
,91,-12,-20,0,4,-3,13,13
,-35,75,24,3,-10,3,9,-17
,-38,-64,-22,-22,-4,-12,-29,-26
,92,37,5,18,8,6,2,21
,50,42,19,17,-5,-1,-17,-36
,-87,-46,-1,9,5,3,17,26
,36,-22,-18,-15,-12,-3,15,1
,28,5,1,-15,-8,3,4,-5
,-114,79,26,-1,16,11,-16,2
,-1,-50,-30,-13,-17,-10,-14,-25
,-128,30,38,34,-7,-4,13,2
,11,-119,-18,3,-3,-11,-9,-2
,75,8,-47,-58,22,8,-4,-18
,56,-19,4,45,-2,6,10,29
,59,10,0,-9,6,12,1,-13
,108,105,7,-38,-16,-14,-8,13
,101,-25,39,44,-3,-1,2,-17
,-72,-44,-52,-30,-7,-4,0,1
,-56,-63,1,-12,-9,3,-1,-11
,-81,45,5,14,27,10,-14,-19
,-34,8,5,11,-5,-12,11,33
,-26,-33,8,11,-12,-2,-16,-12
,127,97,20,5,11,9,10,19
,-72,-29,-18,-32,-21,-9,16,-22
,-28,-9,-10,-1,7,-5,-5,11
,88,-1,15,8,-10,-8,0,11
,-9,32,6,-18,0,0,-3,-5
,14,1,12,9,15,10,9,29
,-54,14,31,9,-12,-14,-35,-35
,76,116,-15,-26,11,19,34,58
,-94,-107,-9,-8,-19,-19,-22,-38
,51,70,-19,-28,-3,4,-17,-28
,-25,-17,19,48,-7,8,55,60
,66,53,10,-33,14,-3,-15,-25
,52,47,-7,7,12,5,8,20
,-106,-67,11,19,-15,-3,11,0
,107,-87,-30,6,-10,-17,-30,-13
,-18,-20,-16,-40,6,1,-10,-16
,103,28,12,-32,-14,4,14,17
,97,36,-5,5,5,-3,3,10
,-22,-25,-7,-19,0,1,-13,-20
,3,24,20,59,0,-2,3,2
,-65,-24,-8,-27,1,-1,12,16
,23,2,5,29,-6,-6,-8,6
,39,-8,-6,-35,-16,1,-17,-14
,63,-50,20,14,11,-3,3,-5
,41,-32,-16,-16,7,6,4,19
,-70,19,0,-23,-2,-4,6,-16
,-46,-18,-18,40,23,5,-16,-18
,-58,18,31,-36,-24,-14,-11,-5
,-29,-69,-32,28,10,-1,-15,-11
,-84,-22,-10,-15,0,-7,16,2
,80,19,3,8,-1,-1,-9,-1
,-53,-76,1,-9,-16,1,1,-9
,22,54,5,20,6,-5,-4,5
,1,-17,12,23,0,3,-8,-13
,-4,70,-14,-12,14,6,7,2
,-9,-55,0,7,-18,-3,9,8
,-7,62,-10,-7,17,1,-7,-28
,65,18,25,19,-2,1,0,11
,-10,-44,-17,-9,3,-1,1,1
,-49,37,-5,-11,4,2,6,-10
,5,19,25,19,-12,1,4,8
,-57,-81,3,13,-11,-4,0,-6
,-13,88,2,-17,-2,3,-15,-17
,-29,-10,-31,10,19,0,14,25
,4,-7,2,5,-10,-5,-5,-7
,-34,-14,5,-15,-8,0,-5,-18
,104,14,5,-4,-5,1,5,41
,-61,-48,-23,8,3,-5,-8,-27
,33,76,12,-5,8,3,-2,6
,-51,10,-10,-19,-4,-3,-5,14
,-50,-117,3,37,-25,-9,-11,-37
,117,84,-31,-54,17,6,14,30
,-15,-40,10,20,-18,-9,2,1
,-23,2,-7,-23,17,6,-3,6
,78,66,11,-32,-15,0,-2,4
,-60,16,40,72,2,6,10,5
,60,-34,-29,-22,3,4,-19,-18
,-57,-41,-31,5,4,-2,24,8
,-105,70,17,30,7,0,5,15
,61,-102,-24,-43,-15,-6,-25,-46
,-89,2,23,-29,0,1,16,14
,7,-16,-11,9,6,1,-12,-10
,-30,-10,0,24,7,3,10,7
,25,14,0,-2,-13,-2,2,2
,-2,-17,-9,23,5,0,-8,-7
,37,-29,0,-38,-8,2,-10,-4
,-17,17,2,9,9,-1,1,9
,-29,10,21,30,-3,-2,-15,-4
,19,-51,-26,-30,0,-6,-6,-17
,41,-9,12,24,-3,1,16,7
,59,-41,-27,-26,-1,-3,-10,-6
,-1,99,24,-12,-9,-5,-5,16
,-104,-69,-2,8,-16,0,-2,-12
,81,57,2,-22,13,0,0,2
,73,33,31,82,-2,-7,15,23
,33,-36,-33,-21,8,11,-3,-5
,-13,48,-27,-35,6,0,-16,-12
,-18,49,11,-15,-28,-5,-7,-9
,-87,-123,-3,-13,4,6,6,-23
,17,45,-4,31,10,-5,14,18
,21,62,25,22,-3,-6,-14,2
,76,-52,-6,-6,-11,-6,-8,1
,48,83,-7,-34,9,2,-3,3
,-108,-95,-15,-13,16,3,0,-19
,39,41,14,4,0,4,33,26
,32,11,-24,3,-2,-3,-23,-19
,-21,4,9,-6,-12,0,-6,1
,17,38,0,-29,0,0,1,-10
,77,-8,5,60,10,7,19,12
,-124,-35,-1,-10,-4,-1,-1,-8
,-7,-13,-16,-20,-16,-11,7,7
,54,46,19,-16,1,-1,-24,-24
,3,5,6,1,-3,-4,10,-3
,122,64,0,22,8,0,-17,-2
,-20,-79,3,5,-10,1,9,-11
,53,-1,-1,-13,-4,-9,12,24
,-58,9,-16,6,3,-6,-6,0
,17,-4,10,-12,-6,-5,-8,-12
,15,5,-8,-22,0,-2,-4,9
,-16,0,3,44,16,9,2,-11
,21,-11,6,-14,8,5,7,20
,31,-10,0,24,-9,-3,4,-1
,-13,60,16,-7,-17,-5,-7,-12
,-75,-32,-32,-15,-1,-2,-7,-12
,-30,-88,-27,-8,-10,-13,-14,7
,-54,13,6,31,25,5,5,3
,16,-1,15,12,4,4,-9,-21
,7,40,5,-31,-13,0,4,25
,-44,-12,2,13,3,3,1,-16
,-24,-19,-18,-1,7,6,23,9
,-10,15,-9,-19,5,1,2,-8
,66,21,27,27,-17,-1,-21,-11
,-6,27,15,-34,-3,-6,4,-6
,8,28,5,16,7,10,10,-5
,-16,6,-20,-11,13,1,20,14
,-23,-72,-1,9,-3,2,7,9
,75,-1,10,1,-8,3,-8,14
,92,45,10,-4,-2,6,-12,7
,-61,32,7,8,-3,-6,-1,2
,63,-24,-9,-5,8,-2,-6,4
,-66,-17,12,58,9,-2,1,-8
,22,7,-22,-53,-6,-15,-11,-5
,-23,4,1,-5,1,-2,-21,-26
,-4,-38,-2,-25,-16,-2,19,21
,51,18,14,32,17,14,10,3
,-42,0,3,-19,-9,-7,-5,-1
,67,33,-22,-18,2,3,-4,5
,-72,-19,-6,77,3,-8,-7,-11
,-8,-45,4,-31,-15,-4,-4,-10
,59,34,-19,-25,-6,-7,-23,-6
,-25,-16,-15,-10,6,11,18,20
,-4,38,19,21,-7,-1,12,-8
,34,18,-20,-33,-7,-3,1,17
,-85,-9,9,-11,10,4,5,2
,58,-24,1,20,-6,1,-6,-11
,36,23,6,-1,10,-2,-23,-12
,-85,43,10,18,-6,-9,8,-5
,39,-78,-27,-2,1,7,7,-6
,-78,-4,-14,-5,9,1,8,-1
,15,14,23,10,-12,-11,-12,-2
,44,-3,-10,-23,2,4,-16,-12
,-10,30,10,-23,-12,-12,-4,-1
,30,-4,-13,-7,8,5,20,22
,61,24,15,3,0,-1,6,13
,-76,18,-14,12,10,5,-7,-6
,-44,-31,4,18,-7,-3,7,-2
,12,-4,11,3,-3,-4,3,9
,-42,-22,12,14,-6,-3,-18,-10
,91,14,-3,-20,3,-2,-6,-13
,-125,-11,-3,-6,-4,3,20,-8
,47,-5,3,17,7,-6,-8,-11
,-12,18,-3,-44,-9,5,4,6
,28,13,1,38,12,-5,-1,2
,-16,11,8,19,-20,-1,-14,5
,71,-9,-15,-37,12,-2,20,21
,-51,-15,11,43,5,0,-21,-26
,-36,-17,-37,-43,-3,1,7,-13
,-1,2,1,12,-6,-7,-14,1
,61,94,23,13,-8,-1,3,6
,-12,-82,-24,-38,5,2,-7,5
,14,-23,9,36,-10,-3,-3,-2
,7,39,-2,44,15,3,12,2
,-71,-44,-14,-31,-5,4,-6,-6
,45,38,-3,-36,0,-2,16,14
,-19,4,12,5,-1,-1,-13,-13
,118,26,11,-8,14,3,0,8
,-118,-35,8,21,-18,-10,-21,-33
,41,10,4,-11,-2,4,7,-4
,2,-12,-10,46,5,8,21,15
,-45,-19,-33,-48,2,-6,-8,2
,19,17,4,11,-15,-3,7,4
,-36,-10,-9,-5,1,2,6,10
,40,25,15,-22,-16,-4,-5,-7
,-38,18,19,29,-4,-6,9,-2
,9,-97,-12,-1,19,-3,-10,6
,15,58,1,4,-9,1,-4,-11
,-7,12,0,-15,10,-1,-6,1
,-26,-78,-4,-13,-19,2,17,23
,4,30,29,13,-5,-4,-15,-15
,97,-1,-16,22,11,2,10,11
,2,13,-26,-41,-1,-3,-7,1
,-70,-22,18,5,-7,-2,-26,-39
,46,7,-7,15,12,3,33,42
,-50,-23,-34,-33,-3,1,-5,-4
,-2,16,18,-9,-8,-4,-6,-3
,53,6,-8,-11,2,2,-7,-3
,-39,-21,13,8,-9,-7,-8,-13
,78,49,24,52,9,2,13,6
,-72,-3,-26,-22,1,-5,8,21
,-42,-22,1,18,19,7,6,-3
,14,5,-5,4,-11,-3,-18,-9
,-36,24,16,-1,0,1,7,-5
,8,20,-30,-99,-18,4,1,5
,56,-53,4,65,-8,-10,11,35
,4,45,0,-2,18,5,-12,-15
,-19,13,4,-42,-1,-1,-7,-3
,-54,-29,45,95,11,2,-8,-12
,21,-12,-19,-47,-11,4,10,8
,66,6,-9,-36,-9,8,4,13
,25,-2,8,46,8,-3,-12,-15
,35,22,18,10,-6,-2,-5,-22
,-27,19,-36,-25,-1,-6,3,9
,-71,-91,-15,-5,-8,-1,2,-1
,-17,-22,1,-16,-7,-2,7,-3
,-63,0,21,5,6,-5,-6,-17
,29,10,-12,16,12,9,23,15
,-26,42,10,5,3,-3,-5,-11
,40,-10,-18,-33,-11,-5,-15,5
,-37,-28,11,21,-8,-9,-8,7
,-13,11,13,-5,-4,-2,-5,-12
,-23,4,0,-8,-14,-2,-12,-18
,8,-11,-12,-2,15,2,0,7
,-1,-7,10,1,-11,-3,-13,-8
,17,-39,-4,8,1,0,11,14
,-56,16,10,8,5,-4,0,-5
,17,12,2,-15,-9,-4,-6,6
,83,-16,-4,-6,11,8,-2,0
,-11,70,31,27,7,-9,-16,-37
,-58,-19,1,0,-11,-3,4,-5
,-78,-28,-22,-14,4,-5,18,1
,39,-21,-14,-48,-4,8,7,9
,11,-21,19,49,6,5,-16,-11
,77,31,5,-7,11,1,-5,13
,-43,-4,1,-41,-19,-8,-6,3
,69,8,-31,75,2,2,24,26
,-80,-15,-23,-58,11,3,-8,-11
,5,-21,4,15,-11,-4,-18,-8
,-11,-15,27,29,-12,-6,16,22
,21,17,-9,-30,15,11,2,-6
,102,75,-9,-14,2,-1,-1,17
,-8,-32,-7,9,3,-3,5,12
,-11,-11,-12,-5,-8,2,-32,-26
,65,71,54,6,-26,-9,2,-16
,43,-47,-35,-24,20,9,11,5
,36,55,-8,-2,6,-2,13,18
,-76,-102,13,56,-11,-9,-6,-28
,19,15,-4,-28,29,11,16,20
,-60,27,16,-28,-20,-2,-12,-11
,7,-28,10,62,1,-4,-11,-6
,59,44,-8,-24,5,6,13,10
,-6,-40,-4,11,-1,-4,-10,-6
,-72,36,22,38,-5,-1,18,22
,1,-54,-18,-39,0,2,1,4
,-3,16,-10,-5,12,-4,-22,-18
,19,-13,16,5,-13,-1,12,6
,-14,-1,7,9,29,8,1,-11
,12,57,-6,-3,-9,1,-3,-19
,-38,27,6,15,5,7,2,12
,71,10,-12,-46,-14,-12,5,18
,-61,-28,12,-1,-19,-2,-14,-4
,-9,-26,11,55,-9,2,24,6
,-40,20,-22,-15,22,0,2,-7
,-97,-12,-29,-36,-2,7,-2,-12
,96,27,20,19,-5,-12,-15,-6
,21,-75,-32,-60,-2,-7,6,10
,14,29,5,-7,-9,-4,1,4
,28,16,15,41,-2,-5,-21,-16
,-32,2,-5,13,1,6,9,-5
,32,40,18,8,-1,-3,-9,-2
,21,-72,-29,7,4,6,12,3
,-31,-5,-3,-3,-14,-13,-17,-8
,14,12,5,-61,4,4,5,-1
,86,43,6,69,19,6,-8,2
,83,19,-5,-16,-11,-2,12,10
,-109,-77,-7,-18,19,-8,-7,-5
,71,2,15,35,-8,-8,-6,-5
,-57,51,-15,-55,-4,-2,-11,-11
,62,-6,11,31,3,0,-6,13
,22,20,-17,-3,0,1,6,10
,26,10,12,-3,-13,-5,3,2
,-42,7,-11,-25,2,2,-6,-6
,-36,-47,-1,26,-12,-4,-24,-32
,-3,-5,10,-11,-1,5,25,17
,10,-32,-15,0,1,-2,-1,-5
,61,31,-3,-3,4,-4,-30,-37
,-73,16,-25,-36,-4,1,39,34
,48,-14,-2,1,16,-1,-26,-11
,-41,-2,-4,-25,-7,7,28,23
,109,-1,26,18,-15,-3,-7,2
,23,11,38,11,11,-5,5,6
,14,43,12,-17,6,0,-6,-24
,-90,-93,-26,12,3,4,1,-7
,19,-20,-20,-29,-2,4,1,5
,11,40,49,12,-16,-3,5,-1
,-50,29,-17,7,2,2,-5,-2
,91,30,-15,-27,2,-5,-30,-7
,-66,-28,0,12,-13,-2,28,38
,-10,-6,-12,-12,3,1,-5,-12
,-9,14,0,61,-2,-1,-22,-18
,-38,3,-25,-33,4,-4,17,17
,-8,-37,-3,16,17,-1,-4,-17
,-3,22,-4,-60,-5,7,12,8
,49,9,14,68,-7,2,-1,-2
,-32,-50,-3,-9,-3,-5,-20,-10
,57,28,0,17,7,3,16,19
,-59,-35,-33,-38,13,6,-2,-17
,-36,-25,-4,-17,-11,-2,-17,-16
,42,53,24,39,-11,0,30,18
,-13,-26,-13,-10,5,-5,4,7
,-48,9,19,55,8,1,-8,-7
,-9,-33,-19,-55,2,-1,2,-4
,62,36,9,5,-11,-9,-22,-13
,-128,-45,-15,-36,-15,3,13,-2
,41,7,-10,3,9,-3,-17,6
,-20,-37,5,35,4,0,15,8
,22,-45,24,3,-19,-9,15,15
,42,18,-33,-76,-5,-4,-19,-21
,69,16,3,58,10,5,0,5
,21,41,-3,-27,-5,1,-5,8
,-16,-36,-26,10,6,0,-6,-13
,-72,-14,22,10,2,-3,-2,-11
,-20,10,-1,11,-9,-3,-4,-7
,-3,-25,-16,-7,6,-1,16,2
,49,16,10,9,2,8,-9,-2
,-8,-2,33,57,-12,-5,8,12
,-10,-5,-44,-30,8,-1,-15,-33
,96,31,17,-26,-2,1,8,24
,-124,-9,11,19,-7,2,-6,-21
,79,49,-19,-28,7,9,6,22
,-35,-16,-6,8,-1,-5,2,-15
,19,-23,6,23,-5,-6,-3,22
,-3,31,-6,-39,0,3,-24,-36
,19,33,26,30,11,5,-4,2
,30,-30,-22,2,6,-4,1,-10
,-91,-27,13,6,-3,0,8,0
,-2,-3,-13,-17,-4,-3,9,10
,7,19,7,-11,-4,-2,-25,-20
,10,55,49,44,-4,5,10,4
,27,-57,-37,-21,4,-3,-15,-2
,20,-31,-10,34,0,-3,18,25
,1,40,-1,-57,-16,3,1,-1
,-12,-7,11,-10,0,-4,-15,-13
,20,27,12,27,-3,1,17,9
,38,5,-4,-42,-2,3,-6,0
,-38,-32,-16,14,-4,-10,6,-8
,-53,11,-6,-14,4,-1,3,15
,33,44,17,-28,-14,-8,-31,-20
,53,1,-8,24,17,7,15,23
,-35,-4,23,10,1,-2,9,-12
,67,27,-4,-27,-10,0,-14,-7
,-97,-3,15,-13,1,4,14,-4
,-13,9,4,49,3,0,-6,-6
,-15,-50,-33,-32,2,9,7,20
,-34,-34,-27,-6,-9,-15,8,16
,10,11,5,12,5,0,-11,-24
,-21,23,4,-52,-14,-6,-11,-4
,-7,-31,0,55,22,0,14,9
,37,-26,3,-1,-4,1,-9,-17
,60,10,-1,2,-11,-2,16,8
,-98,55,25,17,9,-4,-5,-1
,-26,-74,-21,-33,0,-1,-7,-10
,73,-33,7,-16,-4,3,0,3
,-19,-18,-9,20,7,1,-29,-18
,-1,21,19,15,-12,0,24,3
,40,53,-9,-19,6,-4,0,2
,-16,-93,9,15,5,7,13,8
,-16,10,-20,-17,-15,-7,-7,-8
,39,10,15,16,12,2,-31,-11
,-97,35,9,-25,-13,-2,27,9
,28,-15,-3,36,4,4,17,29
,-30,-6,-1,-28,5,0,-3,5
,-19,-48,-16,36,2,0,-9,-23
,30,0,8,-8,-9,-2,4,13
,-37,76,-30,-27,0,6,-16,-19
,-71,-64,-3,4,-4,-3,-4,-14
,120,32,-34,-33,-4,3,23,13
,-88,-30,31,46,8,-6,-17,-21
,43,40,1,-33,-10,-5,-10,-4
,-21,-13,-38,14,21,6,26,30
,35,-12,7,-24,-13,0,1,-5
,11,10,6,32,-1,3,2,16
,35,-7,-1,-3,8,-8,-6,13
,62,45,-25,35,25,12,12,9
,-83,8,-5,-28,-6,-11,-8,-2
,14,-40,0,-26,-17,-8,-26,-22
,-13,42,28,20,-10,-3,-4,-2
,80,-8,-21,-50,-13,2,14,21
,14,-41,5,32,13,1,-3,10
,22,26,-9,0,3,2,-11,-12
,-58,-20,22,-12,-19,-5,12,-9
,74,46,17,46,8,1,-17,-3
,28,27,18,4,-3,1,-18,-1
,-53,7,-29,-37,-8,-12,5,11
,-7,-11,10,47,9,3,-14,-36
,-53,17,-29,-85,2,-4,15,30
,-65,-24,-1,53,8,1,-14,-15
,127,47,8,-26,7,4,-1,27
,-35,3,-5,0,-3,-3,9,-4
,-62,-37,36,26,-21,-5,-11,-25
,15,-18,-40,-32,7,-3,11,5
,41,39,29,43,-6,1,4,-11
,-49,7,-26,-44,0,0,-10,16
,-29,-8,13,8,4,3,1,-19
,-33,-17,-2,-29,-9,-6,7,29
,50,-9,-8,8,-11,-4,-9,-12
,3,15,1,-3,-14,-3,-14,3
,-65,3,6,-12,-17,-1,20,9
,71,6,4,23,35,4,2,7
,-43,-80,-17,-18,-2,1,-4,-16
,29,18,13,7,9,4,-9,-3
,80,34,36,31,-14,-2,15,21
,80,30,-20,-28,-7,-3,10,-8
,0,-8,22,88,14,4,5,14
,20,-34,-41,-49,4,1,7,17
,3,-42,7,-10,-14,-4,-13,-11
,-4,21,7,1,5,6,0,-14
,43,61,13,-19,5,3,-3,7
,6,18,7,8,3,-4,8,13
,-25,-1,3,-16,-4,-2,-12,-11
,-5,29,4,57,0,0,-9,-26
,-8,-9,-25,-35,-10,-6,-4,6
,-36,-49,-16,-26,2,-1,15,2
,6,24,13,11,9,2,6,8
,-26,-31,8,-30,-24,-6,-13,-12
,43,47,3,7,12,7,-16,-23
,3,21,2,35,4,-2,22,26
,91,-14,-8,-12,-6,-2,-10,-9
,-60,18,12,4,5,-2,-2,18
,18,-83,-14,4,-3,2,11,-12
,15,12,0,-15,1,1,1,-2
,-18,-14,-6,20,-2,-3,-13,-9
,11,39,9,-46,-18,-6,-20,-13
,-99,-17,22,70,13,2,5,3
,-24,-41,-42,-18,4,1,6,19
,-24,3,-15,-22,-3,-5,11,0
,-49,-5,-18,-18,1,-2,-6,6
,-27,-50,4,-16,-14,-4,-13,-17
,14,86,48,-1,-7,1,0,-1
,-71,13,-55,40,9,7,-7,-15
,-4,-121,5,-20,1,-8,21,11
,5,65,-11,-49,4,1,-5,3
,-42,-68,13,76,-4,-1,-31,-55
,-5,60,31,-14,-5,2,29,41
,78,-29,-30,1,14,4,0,9
,-91,10,8,16,12,1,1,-6
,48,3,-16,-42,-11,-1,6,13
,10,-13,10,-10,-5,-5,-8,1
,54,-6,34,42,-8,1,-15,-28
,67,10,-43,-51,-2,-5,13,22
,-7,13,18,38,-6,-1,-3,-27
,-57,-18,-11,-5,18,1,0,-21
,-92,-43,2,11,4,9,9,3
,9,-40,1,-21,-37,-19,-15,13
,-4,19,-15,9,15,0,-5,-10
,12,-42,10,16,1,2,-9,-20
,59,31,9,-47,1,-7,13,5
,7,37,8,29,11,11,-13,4
,13,-17,-2,8,-7,-7,12,-1
,127,45,3,-34,-16,-3,-1,17
,-108,0,-9,-13,-4,3,-15,-26
,61,4,-3,11,-8,-6,3,6
,-63,73,36,4,1,4,-12,-8
,55,-76,-38,22,17,-5,-7,-1
,-14,52,0,-16,-7,2,3,-4
,23,39,18,26,-6,0,2,-2
,-37,-39,-36,-38,1,-4,-1,5
,7,21,19,-37,-14,-2,8,14
,89,39,0,29,22,-1,-3,14
,-74,-90,-2,-28,-2,2,-6,-20
,17,-58,6,27,-7,-4,6,-24
,-3,12,7,-3,-2,-1,-15,-10
,23,3,-27,5,-9,-3,21,42
,6,-15,8,-43,3,-6,-8,-2
,75,13,9,22,1,1,-16,14
,-74,-3,7,30,0,-1,7,-8
,36,90,14,38,-1,3,-6,-18
,-15,-32,-30,-32,-4,-5,-12,7
,-50,-77,-39,-52,-2,-9,-11,-2
,37,-43,-3,22,9,1,10,6
,56,41,13,-7,-16,-7,-14,-15
,-25,32,44,56,-3,-4,-5,-18
,-8,37,-38,-52,3,7,26,22
,51,-42,7,-6,1,0,-14,-21
,17,-25,-13,20,25,9,10,2
,65,11,-11,3,-10,-10,-12,-12
,-75,63,31,-31,-6,7,16,19
,-6,26,0,1,-8,1,1,-9
,-66,-56,-19,-19,-15,-7,3,4
,31,41,2,23,16,9,-1,-18
,87,5,27,34,9,2,0,16
,63,90,-2,-23,4,0,0,17
,-48,-86,-8,-8,-8,-2,2,-3
,8,52,-25,7,1,0,7,-1
,59,6,5,-7,-4,0,-2,0
,5,49,30,28,-2,0,-7,-6
,-7,-3,5,26,20,-1,-28,-27
,-9,34,-32,-41,-4,4,59,56
,-80,-97,-19,-68,-13,-6,-10,-34
,-6,25,-1,55,-3,-2,0,-2
,20,27,25,12,-14,-2,0,-10
,24,-12,-6,-6,13,9,4,-5
,23,6,26,-2,-3,-4,-19,3
,-28,-5,-41,-16,5,2,5,18
,-39,-19,7,-14,-12,-9,-6,-39
,-8,10,-1,14,15,7,32,33
,11,39,11,35,-11,-9,-8,-3
,28,-22,-9,-46,-13,-4,-8,-7
,-31,14,-7,-20,4,4,-20,8
,46,24,42,25,3,0,-1,-12
,-39,37,-24,7,1,0,16,10
,-43,-44,-11,-53,2,-5,-12,-12
,76,46,5,24,-10,0,6,15
,-73,-97,-17,-18,-1,-2,-26,-41
,49,13,40,7,6,1,22,40
,2,12,-25,37,18,1,5,-12
,-21,-8,-8,-24,-10,-2,5,25
,27,1,11,4,-4,2,-11,-4
,0,0,-5,8,0,0,-10,-21
,65,28,11,-9,-16,-5,-1,12
,79,9,-11,-22,1,9,14,14
,6,-2,-16,10,4,-3,-8,-6
,-54,-44,15,15,-2,0,-4,-9
,-13,-19,26,15,4,0,-5,-10
,-2,-32,-41,-42,19,11,33,14
,34,-5,23,5,-11,0,4,-9
,85,24,-25,14,-8,-2,5,6
,10,37,20,-7,12,0,-20,-8
,-62,-25,8,-7,-10,-9,-16,-12
,-57,-20,-8,1,2,-4,4,7
,42,20,-17,-8,-2,7,-14,-24
,-72,-44,3,8,-10,1,36,29
,54,6,31,25,-1,-1,-5,7
,-25,20,-26,-28,-4,-3,-12,-20
,-26,15,-9,18,16,-9,-13,-8
,77,2,-13,-3,3,2,7,21
,-59,-19,-11,1,-8,2,-4,11
,22,8,13,1,-20,-2,13,-6
,16,1,9,-9,5,2,-3,-2
,-65,-9,-5,-11,-10,-3,-35,-32
,6,-7,5,-12,6,-8,27,33
,1,11,20,73,8,-4,-17,5
,-16,-47,-18,-35,-4,3,-6,-7
,-26,10,18,7,-9,2,21,4
,6,35,-10,-19,-9,-1,-20,-35
,1,5,-11,-8,4,4,6,18
,127,74,6,36,10,1,14,20
,-126,-61,-12,-12,6,6,19,-11
,-52,-19,-18,9,-11,-8,-10,-12
,96,30,8,-24,3,2,6,9
,-6,-18,8,10,-4,-1,-15,-8
,20,86,27,8,-4,-1,11,27
,11,-69,-33,-4,5,-7,-16,-25
,-76,8,-17,-47,-3,5,13,7
,39,-47,14,27,-5,-1,14,7
,-37,2,-11,-1,9,-7,-18,-10
,4,-49,10,22,-1,4,-5,-10
,-27,-8,8,-31,-9,-6,-18,-3
,2,-30,-7,58,23,4,-12,-9
,32,10,-6,-23,-3,-4,-1,-6
,71,66,6,-3,-6,5,18,17
,-75,-64,13,20,-1,-6,-10,-5
,-42,35,-33,-47,-9,1,1,-8
,125,11,20,49,-7,-5,18,35
,-32,-24,-21,-3,19,5,-8,-12
,-80,39,-4,-45,-8,-4,-1,9
,-47,-38,8,-7,-15,-5,-19,-19
,48,-35,1,12,8,3,-8,-12
,4,21,-1,-43,-16,-2,6,21
,74,-20,23,107,14,0,-9,-7
,1,43,-18,-58,4,0,6,-12
,22,-46,-13,-32,-1,-3,2,-9
,26,37,28,14,-1,-2,5,17
,11,13,24,-4,-4,2,-2,-9
,-63,-19,-23,9,13,1,6,13
,47,22,7,7,-13,-5,-22,-13
,-99,-12,13,9,-3,3,3,-22
,84,5,-34,-39,-6,-1,6,11
,-22,-20,30,56,-2,-5,-16,-9
,-4,14,-48,-35,4,3,16,0
,-43,10,-14,22,-2,0,7,8
,2,1,3,-8,6,2,-5,1
,33,-8,14,-36,-16,-5,2,-2
,-71,5,4,-1,20,-2,-15,-9
,17,42,23,-11,-9,-3,-10,-19
,11,0,1,50,-3,3,22,16
,-66,3,-2,-12,9,-5,-5,-4
,58,-34,-10,32,-13,-2,-7,-5
,-44,-24,-4,-21,-6,2,-16,-12
,-38,-24,-15,-25,5,-8,18,29
,-19,-9,-9,-2,-10,-2,-6,-1
,6,35,14,-31,-2,4,-17,-29
,31,-8,8,44,5,-7,17,37
,19,-35,-19,-24,-3,0,2,-11
,-25,-24,11,8,-3,0,0,-16
,-22,44,-6,31,12,6,10,29
,34,-37,-19,-21,-7,0,8,-10
,0,11,3,-9,-12,-6,-18,-23
,34,69,33,19,3,4,12,-1
,-128,-112,-13,30,-12,-10,-17,-33
,102,69,-28,-53,33,11,34,30
,-30,-4,-7,-14,1,-2,-10,7
,37,9,-4,12,-17,-4,21,17
,-5,-45,19,0,-4,-2,-10,-4
,-70,-9,11,49,-1,-4,-10,6
,-42,-36,-23,-16,0,-4,-6,-30
,42,68,19,6,-5,4,3,33
,-61,28,12,-13,9,6,6,6
,-71,-73,-22,-13,-6,-6,-5,-16
,96,43,11,-11,10,7,-9,-8
,-101,-42,8,-3,-20,-6,4,1
,22,29,-18,-24,-2,-2,16,0
,32,-3,-2,18,8,4,-10,-9
,9,30,11,10,-12,-1,-6,-10
,17,-38,-4,-2,10,2,11,-1
,22,5,-10,5,11,1,-23,-16
,-63,-2,0,-4,-14,-11,10,3
,43,-19,8,12,-11,-6,-18,-17
,-19,17,-21,-16,4,4,14,31
,-28,-20,29,33,10,2,-3,-6
,116,32,-6,-34,-4,-5,-7,-10
,-89,2,-3,54,14,4,2,-2
,118,9,-7,-67,-7,-14,-48,-39
,-5,36,-2,47,-3,10,40,45
,4,3,20,2,-5,1,-10,2
,10,-5,-4,-23,0,0,6,13
,65,25,10,25,8,-1,-21,-23
,-44,22,8,-31,-9,1,4,-8
,38,15,-4,4,1,-3,-3,15
,-38,-5,-12,2,3,-5,-9,-8
,31,48,31,-4,-8,2,7,4
,-59,-72,-43,10,3,-9,-11,-12
,53,-1,-5,-31,-3,-2,14,20
,48,-6,0,20,-2,-1,-13,14
,-70,-22,10,-10,-4,-5,1,-10
,98,21,-5,-1,0,3,2,5
,-4,0,24,23,3,3,-13,-16
,61,0,-16,-14,-1,-8,-8,1
,-8,2,-21,-12,6,7,24,27
,44,-14,-6,7,-7,-8,-12,-1
,-127,-16,20,12,-11,3,3,-12
,30,10,11,-1,-6,-2,10,-12
,2,8,-28,17,14,4,-5,11
,11,-12,17,-30,2,-1,19,34
,22,-12,-8,20,-1,4,-10,-17
,-9,5,7,-20,-7,-3,-4,-9
,-33,13,-5,-27,-7,3,5,8
,54,-45,-18,11,-6,-8,-5,-6
,-66,-36,-6,-5,-1,-6,-3,-4
,8,6,7,30,11,5,13,15
,-25,-74,0,-51,-16,-11,-15,-24
,100,50,20,47,-1,8,3,-1
,-67,45,-5,-26,-3,-9,7,7
,0,-13,-6,-13,6,11,25,18
,97,14,6,46,7,-1,-14,-10
,-81,28,13,-20,-25,-6,9,-14
,67,-30,-38,-1,3,-3,-11,7
,-88,-51,17,-6,-9,-6,9,-1
,-48,-23,-60,7,8,4,-4,-16
,45,42,13,-2,1,-7,-6,6
,-18,-40,4,8,0,0,-5,-7
,2,35,-1,-26,6,-3,-14,-9
,7,-81,13,5,-8,-3,21,22
,13,29,-8,-34,-3,8,15,12
,-31,38,6,13,15,5,-10,-17
,-46,-30,2,-37,-27,-15,-12,8
,21,9,-20,2,10,4,2,-4
,-82,-4,-10,8,3,-4,-26,-34
,81,25,30,-11,1,6,28,23
,13,15,-4,-2,2,4,-5,-3
,-30,-37,16,14,-9,-7,-6,5
,-11,2,-8,-11,10,4,-14,-11
,11,41,6,11,-5,-8,-15,9
,30,-22,-25,-8,6,6,30,16
,-66,-11,11,17,8,3,5,-13
,-59,12,-5,2,-24,-1,5,7
,57,-5,2,6,9,-5,-11,-5
,-67,-23,-23,-4,8,4,-7,-4
,57,61,26,5,-11,-3,5,7
,-32,-38,-7,-30,-3,-5,-16,-17
,4,33,13,25,3,1,-7,-8
,-47,12,-33,-18,10,-2,-3,-20
,14,-5,11,17,-2,4,38,17
,41,25,32,-60,-6,-4,-13,-3
,72,-6,-37,91,29,7,3,-5
,7,-35,5,-24,-2,-4,-23,-15
,-9,-11,-13,-33,-13,-2,-4,-4
,55,81,14,-17,-6,-5,16,21
,-97,-116,24,-47,-16,-1,10,-4
,49,31,4,43,7,1,-16,-22
,-23,28,-1,14,14,4,1,13
,54,-48,-18,-10,-10,-4,-6,-6
,-104,63,34,2,-13,-2,-6,-22
,86,-30,-9,15,7,1,2,7
,13,12,3,6,-1,-6,-6,-13
,-6,-15,-7,-5,10,-1,-4,-4
,13,39,-9,-6,-6,5,3,7
,-50,-12,16,23,-24,-7,-5,-8
,16,27,-31,-19,14,1,0,23
,-78,-128,-12,10,4,-12,-10,-14
,108,26,-28,-50,7,5,4,9
,-31,73,35,28,-9,-1,13,9
,14,-29,5,22,-6,-2,-18,-25
,37,49,-3,11,-1,-2,-3,8
,-27,-56,-11,-6,-11,-10,-27,-19
,127,56,-31,-7,13,3,31,38
,-30,-2,29,-18,-27,-7,-26,-14
,12,-29,-13,-16,18,7,6,18
,-22,-33,-16,13,-7,-3,-2,-6
,-41,25,22,10,-10,-1,-19,-1
,77,64,-8,-60,-5,1,24,12
,-14,4,18,56,13,5,4,-9
,-77,-10,-16,-1,3,-1,-10,6
,-29,-44,0,-13,-9,-7,11,-7
,40,-43,-21,-53,-27,-8,-9,-6
,-11,46,19,58,31,15,3,8
,83,55,10,-11,0,-3,14,4
,12,-11,4,18,-2,-5,-14,-15
,-6,7,-13,-16,9,5,24,37
,22,8,21,16,-10,-1,-2,-7
,12,-101,-38,3,-7,-7,-9,-5
,-28,21,-30,-30,-19,2,-8,-31
,44,-18,3,0,39,7,14,12
,-58,-11,-19,18,-17,-11,-13,2
,117,39,21,-12,3,8,18,15
,2,2,20,19,-1,-3,-6,1
,3,37,12,29,2,-5,-23,-16
,-12,-46,1,-15,-20,-8,5,6
,-43,6,-16,-19,-11,-5,6,-10
,-42,19,-18,-12,17,6,13,28
,-33,-5,10,5,13,10,-23,-33
,-18,-2,-2,-14,-5,-3,3,20
,-19,-19,-3,28,-6,-2,7,-9
,26,7,21,14,5,-4,2,2
,-21,49,5,-15,-6,1,-9,-16
,-6,-12,-4,-23,-16,-9,-24,-32
,56,41,21,26,17,1,14,28
,-114,-47,-5,-2,6,8,33,15
,37,-21,10,43,6,-5,-20,-3
,33,28,-25,-51,1,0,-10,-20
,16,16,31,-9,-9,2,15,-3
,23,-23,-32,-31,1,-7,-27,-11
,-44,-19,-24,26,-18,-4,8,-9
,-70,19,10,-7,8,9,43,4
,14,-13,-15,12,-2,-6,-39,-2
,-39,4,7,-20,-10,2,5,-1
,-54,-5,17,11,-2,-5,2,0
,29,-72,-37,13,9,-3,-4,-28
,-55,-11,4,-32,-2,-1,12,2
,-3,24,17,74,2,2,-11,-6
,52,-17,-17,-9,6,5,-1,23
,-38,62,-30,-36,6,6,26,6
,-33,-49,27,30,-16,-2,-24,-35
,4,40,-38,-76,1,3,15,15
,-96,-107,-11,15,-2,-9,-13,-43
,75,52,18,12,0,0,2,16
,21,18,7,-22,-8,-7,-14,13
,20,11,27,48,9,1,13,13
,36,-2,12,23,-5,2,12,5
,-23,-24,-36,-11,13,4,-7,11
,-30,-27,-8,-8,-10,-7,-7,-8
,90,16,47,-1,-9,-4,-15,-5
,-14,12,-44,-34,9,9,20,10
,28,-12,28,5,0,-6,-20,-3
,91,65,-7,22,18,13,22,24
,1,-46,1,-15,-8,-7,-16,-24
,-24,22,3,6,1,-1,-4,-2
,-25,-16,43,14,-17,-6,6,9
,16,-7,-17,-20,9,0,4,-2
,-54,-49,-10,-2,-2,0,-26,-19
,45,8,10,-3,-28,-19,9,31
,78,-5,-42,-15,12,4,2,12
,28,35,-5,-14,-1,-6,-10,-18
,-23,-23,-2,-1,5,0,0,-1
,-4,-15,1,1,6,4,-13,14
,-38,7,19,3,-7,4,3,-6
,12,20,-17,19,-6,-6,-12,2
,8,11,24,17,-4,4,-1,-11
,5,-20,-55,-3,27,4,9,10
,-5,-39,-7,-26,-8,-3,0,-3
,-17,19,4,-10,-8,-4,-11,-4
,8,36,11,-11,-4,-5,5,-1
,-27,-37,-2,1,3,3,3,-3
,-1,31,11,4,5,5,-8,-6
,-5,15,19,0,-15,-7,6,-15
,101,-20,-19,36,17,-1,4,19
,-73,28,13,-5,-12,0,11,-10
,44,1,0,-19,-2,3,-19,-32
,-26,-20,-6,0,23,0,12,31
,-11,42,-1,-27,-8,-4,-1,-22
,22,35,13,9,2,6,5,10
,-6,-23,22,22,-12,1,1,-1
,-67,7,16,-39,-11,-1,4,9
,-2,11,-15,3,7,2,-8,2
,60,0,-3,7,-7,-2,15,13
,6,2,15,31,-6,-9,-9,1
,35,-9,21,25,-11,-5,-5,-3
,-31,-21,-46,-53,14,-1,-1,-14
,10,33,23,2,-10,-10,-25,-25
,-16,3,11,-4,1,4,23,24
,-24,-37,-67,-12,13,6,-3,-12
,15,-22,22,11,-10,-1,11,16
,-26,-21,14,8,9,4,-15,-14
,92,52,-1,-17,-25,-10,-6,8
,-23,-48,12,51,10,4,9,-3
,81,10,-21,-17,5,7,2,-1
,38,12,15,30,1,5,25,24
,13,-33,-43,-78,-9,-3,-6,-2
,-30,-27,-1,18,-4,-1,-8,-14
,44,21,14,-1,-10,-6,3,13
,-6,-44,-3,12,8,4,-8,0
,27,23,12,-47,-9,-8,13,31
,-11,-11,11,80,22,5,2,-12
,-32,-2,-17,-11,-9,-5,5,3
,41,41,18,-20,1,-1,-19,-20
,-15,-38,0,28,16,2,10,9
,-63,7,9,-24,-6,-4,-4,0
,8,-15,-22,-17,5,-6,1,13
,-8,-2,4,1,-6,-6,-4,-11
,24,-24,5,15,-11,-4,-29,-26
,36,55,-12,-3,5,-2,26,30
,-24,-33,14,39,-1,2,4,1
,24,19,-28,-53,-14,-4,-17,1
,-55,8,-9,50,24,1,-16,-35
,25,5,17,-35,-15,-4,-1,1
,-37,-14,-2,26,4,3,3,-2
,-12,-16,-8,-32,-6,-12,-16,-2
,-47,45,30,-4,1,1,12,9
,23,8,-9,5,6,0,-13,-3
,26,-30,20,-9,-8,-7,-21,-6
,-24,-19,-9,18,-9,2,25,12
,-31,-1,-24,23,11,6,-7,-22
,-27,6,-1,-15,-16,0,-8,-7
,2,-16,-14,-56,8,5,15,32
,-29,11,14,18,-5,-3,-13,-22
,-13,-16,-16,-1,-6,-1,-1,-9
,48,16,11,4,5,1,8,22
,-30,-6,-13,19,-13,-3,-31,-42
,-2,-2,2,-40,1,-3,13,27
,-2,17,8,0,3,3,6,-5
,13,-17,-4,-34,-8,-3,-20,-17
,-41,22,8,60,6,-7,-3,-9
,13,-9,2,17,12,5,19,17
,80,18,-13,-82,-14,-6,-1,28
,-10,-21,-10,2,-1,-5,-30,-30
,-13,-8,1,-4,3,8,31,32
,-27,41,17,2,-10,-1,-10,-28
,19,-23,3,30,1,0,2,6
,0,4,-9,-13,-5,2,12,18
,30,31,10,-12,12,-5,5,-9
,1,-11,-5,36,-3,-9,-25,-9
,-7,-19,-2,-20,5,5,5,7
,-27,43,42,18,-4,6,17,7
,33,-14,-30,-62,-11,-6,-17,-15
,22,16,-8,10,3,3,15,-7
,3,-7,-2,20,-4,-7,-11,1
,-72,-31,4,1,0,0,7,-12
,71,36,24,-7,-20,-3,-8,-15
,12,13,-9,-6,17,11,-3,18
,-34,-39,-27,-13,-14,-9,-6,-6
,31,29,-1,19,11,5,1,-3
,-50,-14,11,-32,-20,-1,-4,21
,4,-19,3,0,-4,-7,0,2
,0,38,9,51,10,0,11,5
,4,-51,-53,-120,-8,-1,2,-12
,-4,25,57,101,-12,-3,-11,-11
,57,-9,-25,-8,18,3,10,17
,-63,-18,-4,-2,10,5,8,-5
,26,14,9,25,3,1,-6,-18
,4,-11,-20,-15,-4,0,0,2
,31,27,5,-5,-5,4,-19,-33
,-17,6,-2,-2,-1,-2,27,28
,-22,18,-14,-7,9,-2,-9,3
,-20,-14,21,18,5,2,10,-18
,-12,9,-8,-9,-3,1,20,23
,4,14,1,-4,-4,2,-21,-29
,17,-18,3,24,-16,-8,4,15
,-9,50,14,33,26,2,-2,4
,-56,-24,-11,9,-5,-8,-7,-13
,-2,-32,-23,-29,-9,-5,-6,-5
,88,19,31,15,-12,-1,-9,-8
,-61,30,-13,-37,8,5,2,-17
,16,-27,-10,14,-9,-12,-20,-4
,-39,-4,-11,14,20,9,39,23
,1,19,-4,-4,-2,1,0,-11
,44,-57,-23,-32,-15,-4,-12,36
,32,-4,32,56,5,0,7,-24
,-29,17,-14,-35,-4,-3,-8,7
,-4,-29,-8,-20,-1,-5,8,13
,8,-5,-7,-9,-4,2,-10,-12
,-42,21,-11,-34,-4,4,4,4
,22,-23,27,68,1,-12,-19,-13
,30,46,9,-6,3,2,11,15
,-26,-36,-35,-16,11,5,6,-2
,7,-18,33,29,-16,-6,-5,11
,23,51,-10,-3,3,0,-16,-32
,-45,-9,-11,-53,2,6,24,23
,82,7,28,78,1,-3,-9,3
,-63,26,-19,-66,7,4,30,5
,42,-18,-6,14,-7,-7,-19,13
,49,-3,-9,-3,-5,-4,-4,-14
,-22,-6,-9,-17,-5,4,9,8
,-24,19,19,46,-10,-3,-12,-24
,-36,-12,-15,-21,9,6,11,21
,-20,-48,-15,-11,5,-3,-28,-19
,11,28,8,6,-1,-1,17,4
,-13,22,18,-6,-3,2,-7,1
,24,-38,-21,-13,7,-1,-5,-18
,-7,6,24,31,-2,-3,3,7
,-2,-13,-32,-17,7,2,-14,-12
,-44,-5,-5,-54,-10,-9,-17,-21
,49,25,24,64,6,5,27,31
,-30,21,-7,-27,1,2,-11,-5
,-25,18,16,4,10,-4,13,3
,111,14,2,4,-2,3,-6,13
,-71,-27,-4,-23,-9,6,0,-19
,42,16,9,53,10,0,2,2
,-56,11,-2,4,-14,-1,-1,2
,-6,-43,7,7,3,-4,-12,-1
,4,3,-15,-41,3,6,11,-3
,-20,-26,2,20,-5,-9,-1,4
,17,11,-4,-17,-8,-7,-6,-8
,4,34,0,-6,10,3,-4,-9
,-15,-17,38,43,-1,-2,11,21
,-43,14,-43,-42,5,9,-5,-21
,25,-30,-6,-15,-2,-4,21,26
,-76,-17,-14,-16,-2,3,2,-1
,-23,32,37,-18,-21,-12,-19,-16
,33,-35,-19,78,26,5,6,5
,-48,-36,-6,-7,2,6,-7,-26
,36,-1,-18,-7,-19,-9,4,4
,16,-18,6,-39,-5,0,-1,-16
,-6,22,16,16,-6,1,-3,6
,-57,-13,-15,-24,-5,-7,-1,-2
,44,-69,-15,15,5,-2,0,0
,5,25,-2,4,-12,-7,-8,-1
,-30,-4,6,-20,-8,-2,7,2
,89,36,26,-1,5,8,-3,13
,-19,-27,-4,3,2,0,-1,-5
,2,-3,-11,12,4,-3,-16,0
,-15,6,12,12,-9,-2,0,-1
,74,7,-32,-24,16,0,-5,7
,-70,12,24,19,-8,4,14,20
,-6,-10,-24,4,17,2,-2,-20
,30,23,22,-25,-6,4,13,7
,-2,-2,9,47,-16,-5,5,-5
,2,-16,-9,-8,12,1,-13,-9
,6,9,-21,-28,-3,3,-6,7
,-12,-9,2,0,-7,-4,5,-2
,-12,4,1,-4,0,-6,-3,-1
,-16,50,2,-16,1,4,2,6
,0,-29,16,26,11,2,6,3
,0,-17,-26,-21,-2,-4,-34,-20
,16,12,-7,-43,-15,-3,8,31
,-3,18,18,36,14,-1,-8,-18
,28,-9,-1,26,-5,0,-6,-1
,-30,-6,-8,5,0,-9,1,7
,-43,-20,6,-8,-4,2,2,-8
,44,10,11,8,-19,-6,-6,-7
,-51,-5,-1,-31,9,-1,-4,-6
,9,-18,6,21,3,2,-6,3
,17,40,7,19,8,5,6,-8
,42,-55,-20,-37,-2,-3,0,-8
,18,32,8,41,-11,-6,-11,-1
,-34,-21,-14,-32,-3,-7,0,-3
,-6,-16,-4,2,11,1,-19,-15
,36,29,2,40,-2,3,56,53
,7,-24,-10,-29,-2,-4,-16,-6
,70,56,-6,-7,3,5,2,-1
,-30,-31,-2,-12,-6,-4,1,-2
,-35,-9,15,-17,-8,-3,-29,-29
,-3,5,-35,9,-4,-7,0,9
,94,32,16,-31,-7,0,10,36
,-74,12,7,51,9,6,-6,-15
,-7,-35,-12,-34,-3,-3,-18,-9
,-3,48,28,12,-7,4,30,10
,-44,-51,-8,-4,-2,1,-17,-20
,53,33,16,-10,-1,-5,-2,-18
,19,6,-41,19,30,11,40,44
,-43,-18,18,-5,-16,2,-7,-6
,-1,-1,2,23,10,1,9,0
,25,-21,3,-20,-21,-4,-7,-19
,-56,5,-12,-21,11,4,18,12
,42,-9,1,-12,2,6,-11,-14
,-47,25,22,52,3,-4,24,23
,-44,-35,-15,8,-1,-4,-25,-16
,99,29,12,-20,-4,-8,-21,-10
,-19,-14,-5,20,-5,-2,21,11
,26,-13,1,-28,-7,-2,-6,-17
,-44,9,3,18,5,1,7,20
,-11,5,18,17,-7,-8,-18,-13
,-22,-12,-21,-4,5,-2,-7,0
,16,2,3,-1,-2,-1,0,-19
,21,-51,-14,-30,-4,5,15,11
,-9,26,10,18,-5,4,-11,-18
,28,22,17,-6,-5,-6,-8,-3
,8,-9,-6,-4,-5,-4,-7,-5
,-23,-13,-12,14,-6,-2,13,16
,-31,-21,-41,-36,-7,-2,-3,3
,80,39,20,36,2,1,1,2
,-95,-52,-20,-38,15,1,-7,-11
,32,23,16,18,-9,-6,-8,-14
,4,-9,0,-10,-1,-1,12,1
,-36,8,11,-39,-4,-4,-19,-22
,117,2,-36,30,6,4,9,29
,-58,-13,-7,-23,-7,-8,-6,-9
,-43,6,5,0,-4,-6,-13,-6
,6,19,20,39,-1,2,-2,-4
,22,-48,-29,-21,2,-2,4,17
,8,40,14,11,7,1,13,10
,-11,22,14,6,2,3,3,2
,-5,-23,4,17,8,5,-8,-5
,-49,4,0,-20,-17,-8,-15,-21
,83,28,4,11,2,9,16,18
,-68,-84,-48,-19,8,-3,3,9
,47,-9,23,-28,-10,-2,-18,-17
,-112,-34,15,48,4,5,18,4
,25,1,-20,-32,-8,-4,-6,-4
,48,35,11,-40,-3,5,5,3
,-15,-10,-17,28,5,0,11,13
,-11,19,22,-6,-10,-4,-18,-5
,-48,-45,-11,20,14,1,4,0
,25,14,2,22,-30,-13,-11,-6
,30,-7,-32,-43,27,3,-1,2
,-18,69,48,2,0,2,16,16
,-59,-47,-23,8,12,2,-30,-15
,-22,-24,1,-8,-11,-3,16,29
,24,19,9,1,-6,-2,1,-2
,69,1,-13,-43,-16,-5,-14,-2
,3,18,28,35,13,9,15,28
,-10,-32,-11,27,5,-3,-6,-23
,0,28,10,4,-16,-10,-35,-18
,-46,8,3,-53,-7,6,33,28
,26,-37,-55,12,11,3,9,5
,16,43,11,14,8,2,-7,-7
,-36,-16,4,-18,-9,-1,3,-8
,19,14,11,37,1,-5,-19,-21
,74,53,7,-20,-9,-3,22,7
,-93,-53,9,18,-22,-11,-18,-15
,20,-26,-31,-82,10,5,-3,-14
,29,15,0,84,16,2,-5,10
,1,-20,-6,-45,-9,-9,2,-10
,-9,-1,5,22,11,3,-11,5
,-30,-6,35,13,-20,-8,18,-2
,9,-71,-41,-69,-11,-1,-22,-26
,75,60,29,22,8,1,0,-2
,-41,41,10,7,5,1,-10,-11
,-2,-39,-24,21,-7,-2,18,28
,-10,10,15,16,0,-3,-3,-17
,-12,16,-5,-24,-8,-2,-16,-14
,58,-19,-12,-43,3,-5,-9,-5
,-22,41,27,-1,-9,-2,11,9
,71,15,-23,42,16,12,17,14
,-41,-30,-7,4,-18,-6,-11,0
,35,37,11,-15,7,3,14,5
,-42,-4,-7,9,13,6,4,-6
,-13,-40,-10,-34,-17,-8,-14,-15
,19,32,8,27,19,2,11,25
,-7,-45,-3,0,-6,1,-21,-22
,24,22,18,28,-3,3,12,20
,-32,33,-23,-20,1,3,-10,1
,-24,-15,-33,-31,-11,-5,-1,-1
,15,28,21,49,11,5,10,12
,88,3,-2,-12,-3,-1,3,5
,-62,-24,9,-6,3,-6,-20,-18
,-7,-9,13,3,-10,-9,-10,-12
,36,14,27,13,-12,-3,5,9
,-12,25,-67,-24,26,16,12,-3
,8,-10,18,29,-4,-6,-6,-10
,-23,-16,15,-18,5,2,-2,11
,-11,-17,-12,-7,-13,-7,0,12
,-11,0,15,-27,-18,-4,2,-3
,58,26,-17,32,17,3,-10,-1
,-91,5,-5,21,9,6,16,-6
,32,-22,15,21,7,1,6,2
,-28,-41,-8,-5,-13,-8,3,0
,9,28,12,-81,-15,-5,7,21
,24,7,14,101,11,2,-24,-26
,-27,-14,-27,-39,7,8,5,-2
,41,18,-3,13,2,-4,-4,5
,-40,-14,18,-33,-18,-6,5,-9
,-33,-5,-7,-49,-11,4,3,5
,-24,-39,-22,1,10,1,-11,-15
,35,29,-1,-23,1,-6,-9,6
,-2,-13,8,58,-2,3,11,18
,49,34,25,3,4,-6,-9,-9
,19,25,22,5,-6,1,2,-12
,-25,4,-18,-3,14,8,9,10
,9,11,-7,-36,-1,0,14,11
,-57,-41,1,37,1,1,-14,-15
,41,6,-4,0,3,3,8,7
,4,0,3,-1,-8,-6,17,13
,-77,9,5,14,-4,-7,-17,-22
,38,-18,3,-28,-1,0,5,16
,69,24,-8,42,7,1,-12,-2
,-118,-6,-9,12,-1,-1,12,-14
,61,-39,-4,-20,-9,-3,12,9
,-22,19,15,6,-4,6,5,2
,-12,0,-16,-44,1,-8,-13,-20
,49,6,9,28,-2,0,-5,15
,-32,-17,4,22,2,-1,-14,-20
,21,-20,-38,-40,-22,-8,0,7
,1,36,7,-3,1,2,4,1
,-38,-38,-46,-20,12,0,-6,-2
,29,24,11,12,0,-1,-5,-11
,-32,-40,10,23,5,2,4,4
,14,10,-10,-24,-14,-4,2,7
,-24,-11,13,14,-6,-2,-16,-16
,20,-16,-6,-4,17,4,5,14
,17,19,-4,6,-8,-7,0,-19
,-28,1,8,22,9,9,12,3
,31,-6,5,6,-5,-12,-37,-5
,-4,2,31,11,-13,6,47,41
,-7,-14,-52,-33,10,-5,-15,-12
,19,24,13,7,-1,3,16,12
,-5,-2,4,6,0,-3,-3,-2
,-11,6,13,47,2,-7,-28,-19
,-42,2,9,-15,-10,-4,-8,-9
,12,-24,-36,-77,-3,2,20,23
,20,0,-4,44,3,2,6,5
,2,33,26,18,-1,-2,-23,-21
,-19,-2,-4,-9,0,5,7,3
,-9,-39,3,8,-7,-6,-9,7
,-8,-11,-27,-38,-1,-1,1,0
,54,20,-3,-5,-2,2,31,14
,37,27,11,16,1,-3,-18,-11
,-11,22,-11,-3,-4,-1,-2,9
,-21,-15,8,10,0,1,3,-4
,-21,-22,-11,-42,-3,-5,-21,-8
,59,12,5,18,13,-2,-36,-26
,-37,4,3,-30,0,3,29,26
,-8,16,40,64,-7,3,12,15
,-24,-8,-57,-7,27,3,-15,-12
,48,-3,18,-28,-20,-7,16,4
,2,32,19,22,-5,-3,-11,2
,-24,-41,-12,-23,0,5,6,-7
,-11,17,15,-16,-9,-5,-6,-4
,-15,-49,-14,0,-12,-3,1,-1
,3,0,13,18,15,-1,-4,-9
,-38,20,-3,-61,-8,-6,-20,-39
,17,-6,4,80,10,7,33,14
,24,-2,-5,-27,3,5,-1,3
,24,17,6,24,-13,-5,-9,-1
,-38,-8,-30,-36,-4,-3,1,0
,-32,9,-3,-20,-5,2,-9,-10
,-18,5,19,37,1,3,21,30
,0,-21,-24,-21,-3,-10,-20,-28
,34,9,-9,19,0,0,-10,-5
,18,20,20,4,-6,2,-5,-7
,26,7,0,3,9,-1,-11,9
,-22,-10,14,-35,-9,-2,6,1
,10,-27,9,59,4,-9,-21,-20
,11,0,-46,-66,3,4,61,62
,-80,-2,12,18,4,-1,-11,-18
,6,-18,13,16,-7,-4,-25,-15
,15,32,0,-3,7,9,24,5
,-23,-28,6,40,1,0,-16,-13
,18,25,14,-1,-9,-1,4,-5
,-18,-39,-43,-16,6,-1,5,1
,-6,24,35,-2,-12,-3,0,21
,-5,-23,-24,2,0,-4,-19,-34
,90,66,-8,-25,6,0,19,35
,-92,-36,-1,6,2,5,4,-8
,42,-25,12,49,8,2,-21,-19
,-26,16,9,-60,-5,-8,19,46
,-17,-43,-39,-15,-1,-2,5,-19
,51,42,5,26,4,0,4,3
,-15,-21,9,-27,-9,-3,-5,-1
,22,21,11,16,-7,-1,-18,-23
,-16,14,12,-5,6,1,1,4
,-8,4,-10,-26,-6,-1,-8,-13
,-4,11,18,-20,-9,-8,-10,-8
,-13,-39,-12,22,10,-1,2,5
,61,11,-12,15,-5,6,10,19
,-22,-7,5,-4,6,0,7,11
,35,57,31,22,3,2,1,-6
,-109,-33,-15,-46,-5,-1,-12,-19
,-5,-28,18,-16,-2,1,16,4
,64,19,-18,1,1,2,-16,-2
,-7,-10,-7,0,4,1,20,14
,31,15,16,36,2,-4,-15,-14
,0,3,-18,-72,-13,-2,0,1
,-5,-3,8,103,-1,-8,-10,-11
,-56,1,-22,-48,16,7,9,8
,-2,-30,5,-1,-6,-5,-5,-25
,5,29,31,37,-3,0,-11,-12
,1,4,-19,-42,9,1,3,19
,0,3,-7,5,-4,-3,6,8
,28,-3,-12,10,-6,10,6,12
,-27,-10,19,23,5,-1,-22,-16
,-31,-10,-4,-26,-3,-8,8,7
,28,-31,-6,8,-6,2,3,0
,13,30,3,-6,2,3,3,-10
,-11,-17,-10,-26,-13,-6,7,15
,-26,27,28,42,-3,3,1,-21
,20,-13,-48,-30,-11,-8,-9,16
,-44,2,6,16,13,-3,2,-10
,8,15,3,-3,-3,-3,-2,9
,-44,-27,2,1,14,7,10,-7
,38,39,-12,-11,-14,-3,-4,-6
,44,38,24,-8,2,4,-22,-3
,-47,-19,-3,25,10,2,20,7
,59,23,7,6,-7,-4,0,-1
,-69,-35,-1,-6,-2,-3,-13,-21
,18,5,3,10,-3,-5,1,9
,-51,-2,-27,-38,-2,3,0,-9
,48,-32,-8,-15,4,3,24,21
,34,6,18,15,12,4,-9,8
,-42,-15,-12,32,-8,-9,-11,-6
,19,5,-26,-47,-13,-9,-12,-22
,-27,-1,2,22,-4,4,12,18
,45,34,24,46,7,2,-4,-21
,28,-8,-29,-52,-4,-6,-1,14
,-57,-28,7,11,-10,-5,5,20
,13,9,22,24,-3,0,-23,-12
,-2,11,-31,-102,-1,-2,19,14
,24,6,5,85,7,4,0,0
,36,10,-17,-29,5,0,-3,-11
,-38,21,3,-50,-12,-1,-15,-23
,-1,-28,10,67,7,1,-1,7
,9,23,7,-35,-8,-1,13,15
,12,-22,29,83,18,2,-14,-2
,-61,5,-27,-42,4,0,-15,-22
,24,19,36,26,-15,-2,5,5
,32,-90,-53,-26,5,-3,-10,-11
,-21,18,11,-2,-3,1,26,27
,42,-13,-11,-9,1,-6,-3,-4
,1,14,-10,-10,2,-1,-1,5
,13,54,22,24,-1,2,-4,-15
,-10,-54,1,26,1,-3,-15,-12
,-14,-1,-13,-20,-9,-2,8,-5
,-32,-15,-17,-46,-16,-3,-6,11
,37,6,22,42,24,12,30,13
,51,9,-18,-2,6,3,-5,-8
,-27,30,-3,4,-5,-5,-6,-3
,-16,-46,19,1,-13,-3,7,-1
,4,31,-13,12,-12,-4,-8,8
,-45,-3,-46,-30,-7,6,12,-9
,40,-53,1,-1,33,0,-2,0
,12,32,16,18,5,3,-17,-16
,-33,-15,5,-37,-22,-5,13,12
,60,38,26,-14,2,-4,-21,-24
,-17,21,23,58,2,5,6,19
,-37,-99,-55,-32,2,-11,13,10
,-4,-7,7,-30,-14,-7,-7,0
,10,37,16,-22,-8,-4,-13,-14
,32,0,15,22,-7,1,9,-3
,19,46,22,0,6,9,5,-10
,-35,-24,-19,7,7,1,6,9
,-15,-62,-29,-29,-6,-3,10,16
,3,34,13,12,11,5,-6,3
,-56,-5,7,24,6,-7,-12,-11
,-40,-19,-15,-35,-15,-5,6,-10
,-18,-19,12,13,5,-2,-4,3
,17,-13,-3,-21,-14,-2,-3,-7
,11,16,7,8,13,5,-9,-14
,39,34,38,19,12,8,14,16
,2,23,-14,24,-4,-10,-16,-11
,-16,-16,-9,-12,-11,-2,3,20
,-36,-37,-21,-11,4,3,5,-1
,6,10,10,-14,0,-5,-20,-19
,-12,23,6,26,-1,0,1,18
,84,-18,10,34,3,-5,-18,-18
,-15,-15,-20,-24,-4,-3,-5,-11
,-23,-29,-20,-50,-10,-7,-5,12
,35,15,13,-5,7,7,10,0
,-44,13,-2,23,-3,-2,-11,-11
,12,31,24,35,-1,5,21,19
,-23,-24,-4,-11,1,-1,-5,-8
,13,26,20,8,-1,0,-22,-29
,-21,4,-36,-32,9,4,22,32
,18,-35,13,35,-8,-2,0,2
,23,33,0,-2,14,5,-14,6
,10,12,1,-9,4,3,12,-2
,-12,-15,15,14,-10,-6,-1,-7
,27,19,-6,-36,-5,-2,-8,7
,32,-24,-7,-14,-17,-2,4,-2
,-27,-24,9,70,15,-3,-10,-15
,-75,17,2,-42,-8,0,-1,-15
,66,23,9,-3,2,-3,13,9
,-54,-16,-6,4,0,1,-17,-22
,-9,-14,16,27,-5,3,34,36
,55,-2,-39,-27,-2,0,-1,-1
,-4,43,17,-21,-3,-3,-5,1
,-5,16,4,19,12,4,1,-9
,-9,-35,4,-37,-17,-6,-21,-10
,43,-3,6,41,-1,1,6,0
,2,27,-27,-25,-2,0,-1,4
,15,28,8,-2,0,-4,6,6
,-54,-31,-19,1,7,2,4,-1
,20,-47,-1,-32,-23,-8,-9,-23
,-11,13,11,-7,7,7,11,15
,23,-32,-6,16,9,-1,-7,3
,-3,24,-5,-47,-15,-3,-3,5
,-24,28,20,22,9,0,-1,-5
,29,-38,-3,15,2,-4,-10,-4
,-42,7,6,19,3,8,17,-9
,10,1,-16,-16,2,0,9,12
,-12,-2,3,-44,-7,-2,-2,8
,-27,-24,-14,53,10,-4,-9,-6
,18,13,13,3,-3,0,2,15
,20,-43,1,6,2,2,12,-13
,-40,61,13,-15,-16,-6,-14,-6
,21,-82,-23,30,6,3,3,9
,-10,14,5,-10,-20,-6,-19,-16
,22,25,1,13,22,8,4,6
,-9,-8,-11,-18,4,1,-3,11
,-31,-9,-1,-13,-4,-3,-4,-23
,76,34,15,-16,-6,-2,-23,-20
,-65,-9,2,-10,-9,-2,39,38
,48,21,-7,22,8,-3,-12,-3
,-26,30,7,-48,-8,-5,-19,-14
,-21,-41,-12,45,-2,1,36,31
,38,30,-2,-21,-5,-3,-40,-25
,-3,-9,-2,43,11,3,10,2
,-35,11,19,-8,-2,-3,6,3
,-2,29,-22,-44,-9,-3,-11,-14
,13,-19,14,30,1,-4,-17,-18
,21,3,16,-9,-5,5,37,29
,30,17,-36,-17,-7,-6,-27,-11
,-62,-20,15,31,17,0,16,4
,12,6,2,-28,-12,-8,-12,-5
,-33,-30,6,-1,-6,-3,-16,-18
,-2,-5,2,27,1,0,7,6
,-41,-34,-15,22,17,4,-3,6
,17,47,-11,19,-1,3,-16,-18
,51,-18,-35,-104,1,-3,23,30
,33,17,25,62,12,10,17,12
,-53,-29,-4,-31,-15,-11,-16,-7
,67,5,12,26,-8,-6,8,15
,-86,40,6,29,9,0,-22,-25
,7,-5,-1,-40,-6,-3,2,-1
,15,-3,8,20,-1,0,6,-5
,42,-22,-1,6,17,9,-2,17
,-4,27,-3,0,2,2,-1,15
,-35,-35,-4,-2,-13,-11,-8,-17
,-6,23,18,-4,1,3,0,-23
,-12,-15,-53,-39,0,8,12,19
,79,-16,17,34,-8,-5,3,8
,-70,51,-15,-71,-1,-2,9,4
,62,-7,29,66,4,0,-14,0
,-76,16,-16,9,6,-1,-9,-20
,28,-25,6,-5,-4,-3,1,-3
,6,-12,22,-1,-2,-1,-10,-6
,14,11,-25,-31,-15,-5,1,5
,-33,-3,11,-2,7,0,0,-10
,27,-18,-9,-12,2,1,-11,-29
,13,-12,-12,-4,-9,2,21,25
,22,34,-12,-3,13,2,6,12
,-22,-60,11,14,-11,-9,-17,-23
,10,18,-7,-21,-6,-3,1,12
,-17,-24,12,35,8,3,0,-7
,30,-22,-7,-8,2,1,-8,-3
,-10,26,-5,-10,-12,-6,13,11
,-47,-18,-2,-2,3,-2,4,-2
,17,1,-13,30,1,3,2,1
,-5,19,-2,-16,-9,-4,-8,-10
,27,-17,37,32,0,-5,-5,-3
,5,4,-31,-56,2,7,-1,3
,-41,25,8,26,-1,1,3,-11
,-23,4,-27,-27,1,-1,2,5
,-18,-14,7,-38,-16,-3,9,13
,-13,-4,26,79,18,5,3,-6
,53,12,0,-20,9,4,-24,-6
,29,5,-6,-24,-17,2,35,20
,46,51,19,25,15,-3,-11,-4
,-75,-72,-34,-2,-6,-1,12,3
,-34,5,9,11,-1,0,-9,-13
,54,6,11,-52,-3,-10,-10,-11
,-48,-2,-34,5,5,7,22,10
,0,8,41,16,-1,0,-3,-6
,27,-5,-14,27,3,0,-2,-5
,71,7,14,-12,-10,-2,-7,16
,-8,36,-7,-30,7,8,19,2
,26,-21,3,39,1,1,-5,-10
,-52,-20,-1,-16,-14,-2,-8,-1
,-11,22,-9,5,11,3,4,17
,42,55,24,57,-13,-1,6,1
,-78,-23,-26,-41,18,4,-10,-33
,45,-22,0,-22,-7,-4,18,26
,-26,20,40,67,7,6,-5,-18
,-19,-82,-53,-60,-6,-3,-6,-8
,34,55,24,17,-8,-3,-2,3
,1,-12,9,44,-5,-7,4,5
,-6,-3,-33,-69,14,0,-14,-17
,-19,2,27,5,-4,-8,-11,-22
,27,-9,-13,38,6,3,11,12
,6,26,-9,-2,11,3,-12,-6
,-17,-16,15,31,-10,-9,-9,-1
,35,-10,-10,-21,-3,-3,13,22
,13,34,-10,-15,-5,-2,-15,1
,-79,-19,11,-4,6,5,19,-1
,34,2,3,14,-3,2,10,11
,-50,-27,-29,-18,-2,-7,-20,-21
,61,0,15,18,-6,-3,1,7
,24,28,3,-38,-8,0,-13,-8
,-42,-2,-1,19,0,-11,-13,-5
,27,43,17,27,0,3,-3,-3
,-66,-47,-20,-53,7,0,17,12
,7,-19,-7,-6,-2,-3,-34,-19
,36,11,-19,9,0,4,49,33
,25,-13,28,-9,-6,-4,8,26
,-18,-8,-1,34,-2,-4,-6,1
,37,45,16,-54,-11,-6,-9,-2
,1,-3,-9,-8,6,3,-8,-5
,-24,5,-20,27,10,9,15,8
,62,-9,13,-17,-14,-8,-14,4
,0,-41,-12,15,1,-2,7,-2
,-56,-14,1,7,0,0,-9,-17
,43,27,26,-5,0,0,-16,-5
,-48,-6,-27,-14,-4,1,-6,-6
,-9,-6,31,33,-9,3,22,14
,-33,4,-45,-4,12,-4,-9,2
,55,4,-5,-6,-3,3,17,9
,22,20,-2,-27,-13,-4,-7,-7
,-11,-29,1,20,-2,-9,-16,-21
,-90,1,5,28,9,6,6,2
,-13,-51,33,3,-15,-11,-25,-14
,-36,-52,-61,-25,17,6,14,-11
,9,3,-4,-15,-1,-6,-8,-23
,33,-22,-2,-20,-3,0,28,0
,35,12,11,-20,-5,-1,-22,-17
,26,40,-8,12,-9,-7,7,12
,-47,-1,-9,2,-1,-1,-20,-14
,48,-3,4,23,1,0,0,16
,-46,-44,-11,-2,1,4,22,16
,22,18,35,20,-11,-4,5,-1
,41,-14,-37,-30,15,10,-2,22
,-39,-22,9,-32,-10,1,-2,-1
,-25,48,6,42,3,5,1,-7
,-9,-10,7,-2,0,-1,-10,5
,15,19,-14,-30,-4,-4,18,14
,8,-2,34,7,-7,-2,-10,-13
,4,-18,-24,3,5,-3,5,6
,-41,-16,16,7,-1,1,-23,-35
,33,39,2,8,13,3,7,37
,-43,-23,15,37,-6,-2,8,5
,37,14,-11,-6,1,-2,8,15
,36,26,5,4,0,-4,-8,-16
,-97,-6,-1,-2,-5,0,-7,-19
,61,-4,-9,-10,-2,5,7,-13
,-76,-4,-18,3,7,3,5,2
,27,1,-20,-16,-2,-7,-14,-12
,23,-5,25,25,-9,-4,3,-1
,7,13,-43,-40,11,8,8,8
,12,24,0,10,7,-2,-15,-2
,-5,4,28,4,-2,-2,-11,-12
,20,18,-38,1,-6,-2,20,22
,-8,-5,27,8,-2,-4,-26,-6
,31,-19,-12,-24,-7,3,23,3
,24,13,-4,4,0,7,1,4
,74,-6,13,15,1,-6,8,5
,-5,-20,-10,24,1,-1,0,5
,-16,-18,-17,-52,1,1,-10,-17
,-31,14,40,50,-5,-3,10,26
,12,4,-16,-16,-3,3,21,3
,15,1,-22,-55,-6,-3,-9,-19
,-3,27,-27,11,8,1,-3,4
,-34,4,16,-3,-2,0,-7,-10
,-49,15,19,-11,-2,0,-6,-23
,38,11,-6,17,-14,-11,12,21
,-5,-24,15,-3,0,-5,-18,-27
,51,22,-7,-47,-6,-6,17,13
,-15,20,14,30,13,8,-21,-17
,-24,-18,2,7,4,-6,-6,9
,-24,-5,20,-8,-14,-11,-24,-20
,-21,-82,-34,47,14,5,22,18
,64,14,20,-5,-5,-4,-9,-14
,-6,23,-13,-27,0,0,3,3
,-11,5,21,0,-7,1,2,-3
,22,12,-5,-75,-5,5,2,7
,15,-10,21,90,3,-9,-13,6
,14,-8,-13,9,13,12,3,-3
,-29,50,4,-20,-4,-9,-16,-24
,12,0,-13,-20,-5,-1,4,7
,-36,-9,-13,4,1,0,27,46
,6,-13,33,23,-2,1,-5,-12
,20,-1,15,24,-3,-4,-4,3
,-16,55,-63,-77,-20,-4,-20,-26
,44,-6,-14,22,28,6,-8,-3
,-2,5,19,12,8,2,10,9
,-24,-5,22,32,-9,0,1,-5
,41,-23,4,31,11,0,6,10
,-17,9,-22,-39,-14,-2,-7,-15
,-38,-9,-5,-20,-5,-1,-4,-15
,-74,-11,-2,9,6,-4,5,-7
,76,25,46,42,-2,4,4,43
,-35,-33,-61,-89,-4,-8,-2,-15
,-13,-11,17,53,-3,-1,7,-11
,38,19,6,6,-8,-2,-1,6
,-58,-64,-17,-31,1,-1,-21,-27
,36,9,12,3,1,1,17,27
,27,38,-6,-18,-1,2,2,5
,16,-10,-21,15,6,1,11,17
,-16,9,34,70,1,0,0,-13
,-27,-1,-9,-59,-4,-2,-6,8
,-27,-46,-17,-32,-12,-2,-8,-12
,58,-15,-4,14,4,-3,-14,-2
,-6,17,-8,13,4,-4,16,7
,0,5,14,21,-13,-7,-11,-9
,-4,17,8,-4,3,-1,-1,6
,34,-17,-4,-38,6,4,3,5
,-8,15,-32,6,-1,-5,-28,-37
,-36,-20,10,31,1,1,14,-13
,11,10,11,-23,-6,-3,12,31
,-52,-29,-14,16,-1,-3,-22,-19
,7,-2,6,-7,-5,5,11,7
,-13,-24,0,-6,-2,-3,-14,-13
,12,3,1,10,-3,-4,-11,-1
,-1,37,13,-15,-1,2,1,3
,-25,-16,-12,0,6,-5,-5,-6
,32,-1,-1,-18,-14,1,-12,0
,-5,29,15,39,17,5,-10,-8
,15,26,-15,-41,-4,1,32,27
,-64,-35,16,21,-5,-7,4,8
,78,13,-23,-37,-3,-3,2,2
,17,-16,0,12,1,-3,-32,-27
,-26,-28,-42,-42,8,4,5,16
,8,3,19,10,-2,4,9,7
,-46,15,20,-15,4,-4,1,0
,-7,-31,6,20,-14,-4,-8,-1
,69,23,19,38,-7,-1,4,5
,3,1,-12,-15,14,3,-18,-9
,-29,29,10,6,-4,1,7,-15
,38,-61,-19,-22,-1,0,16,18
,0,19,49,22,-7,-2,-1,-7
,4,16,5,-1,6,-5,13,19
,-34,16,-36,-15,-3,-2,-15,-14
,1,2,-4,26,-5,-7,-9,-14
,3,-11,-3,-28,-17,-3,-18,-2
,17,28,15,31,12,7,22,28
,-6,-18,8,35,7,0,-2,6
,-28,0,-33,-26,2,-3,5,-9
,22,12,-6,2,8,0,-26,-16
,-49,-25,15,-10,-3,7,36,12
,24,0,0,-1,-5,-5,4,10
,23,24,-1,-33,6,4,5,0
,-62,-40,-4,8,-3,-3,-4,2
,24,-22,-16,-43,-21,-9,-16,-28
,29,-29,28,54,10,7,-3,-2
,-21,10,18,-3,-11,-7,-3,3
,11,3,-17,10,10,6,25,5
,20,8,41,34,-8,-7,-33,-31
,-27,-28,-49,-54,-10,2,20,30
,4,45,9,-16,-6,-3,-8,-15
,-8,-1,-6,-21,-9,0,-11,-3
,17,-14,-16,4,7,-4,20,31
,42,21,33,32,7,7,-26,-41
,-107,-9,-10,0,-4,-3,29,28
,13,-31,2,-31,-7,-1,14,13
,45,13,4,44,11,4,-17,-18
,-57,-16,-16,-34,2,-1,-6,1
,32,-23,-24,-6,-3,-2,2,-13
,-19,3,11,14,-9,-2,0,-12
,19,65,17,16,23,6,1,9
,-13,11,15,-9,-2,3,10,9
,16,-19,-8,-7,2,-1,6,-6
,21,-4,-15,8,-7,-9,-12,-2
,1,28,8,-9,-1,5,-14,-13
,61,26,11,44,7,5,25,24
,-30,-62,-16,-42,-18,-8,13,10
,-38,0,-8,9,11,0,-8,-3
,-42,-8,5,24,-2,-1,1,-8
,19,3,-3,-22,2,5,-14,-26
,-20,14,10,-40,-17,-4,-12,3
,-44,-12,15,44,29,6,-14,-7
,19,16,-37,-23,-21,-15,4,13
,-17,-29,14,-6,-9,3,14,3
,20,36,18,2,13,5,-18,-13
,-62,-24,-31,0,-13,-13,-17,-11
,-9,3,-12,-55,1,6,15,2
,37,-14,-1,25,-3,-8,-6,-2
,-14,14,32,91,13,13,-4,-7
,31,23,-30,-40,5,0,0,-6
,-34,-64,-5,-43,-22,-8,-3,1
,25,10,-8,20,10,9,19,0
,-13,3,25,47,-5,-4,-14,7
,27,23,-13,-47,1,2,15,12
,-28,-5,-7,4,-1,0,-5,-5
,-53,-49,-1,-10,-2,-6,2,-10
,91,35,-22,-32,6,-5,-27,0
,-3,22,30,67,12,4,22,11
,33,15,18,-75,-13,-6,-2,4
,12,31,-3,78,3,-1,-13,-9
,16,-42,-9,-27,4,-1,-2,-28
,12,0,-11,-30,-12,-2,21,46
,30,9,-9,-2,7,7,0,-13
,-51,0,27,22,-11,-12,-20,0
,100,54,-5,-49,-11,-5,5,9
,-55,-60,-33,-43,2,3,-9,-17
,-15,-14,17,68,3,0,-4,-8
,-14,-7,-9,-57,-1,3,7,-16
,31,40,23,56,16,11,20,18
,0,0,8,3,-7,-3,1,-19
,-26,-9,-7,-16,-7,-3,-8,15
,33,25,-8,-16,-3,1,-1,4
,-28,-50,9,53,3,-5,-26,-18
,25,27,-10,-35,-3,4,25,31
,-63,-25,-14,9,10,4,6,-15
,11,-5,7,-22,-14,-9,-1,9
,-52,6,-15,-1,0,-2,-2,-6
,23,-7,19,24,-5,0,-17,-17
,55,24,-6,18,13,9,5,25
,17,-6,5,-8,-8,-10,11,22
,-78,-11,-26,4,-3,-4,-7,-9
,-28,-22,0,-8,-7,0,3,-8
,21,-3,-8,0,5,-1,-5,-4
,-51,7,-9,17,17,2,-2,6
,39,-27,-21,-37,-12,-3,-15,-3
,36,50,48,40,0,-7,-20,-21
,45,-30,5,1,-13,-4,16,10
,-66,23,-34,-8,3,0,11,9
,-20,-45,-1,-24,6,2,0,-13
,34,-4,17,35,-18,-7,5,10
,-9,33,-4,-63,2,0,-17,-18
,34,12,1,40,15,2,-13,-14
,-46,-42,-18,-49,-8,1,21,13
,20,10,-10,37,2,4,15,-18
,-88,9,16,16,5,-9,-15,-10
,95,-24,-2,-34,-7,-2,3,17
,-23,62,37,20,-6,8,-15,-3
,-18,-29,-23,-24,9,5,24,6
,2,5,20,57,12,3,5,5
,29,9,-6,13,1,-3,1,1
,7,2,2,-21,-10,-10,2,8
,-29,-5,4,11,-13,-6,-16,1
,-28,-22,-23,-32,0,1,-8,-7
,16,-1,-8,-1,1,-1,-10,8
,23,5,10,48,11,-3,-5,-6
,-11,39,27,3,-5,-7,-10,-4
,-3,-7,-47,-57,11,3,11,14
,-4,-9,-2,10,-21,-4,-6,0
,16,14,-22,2,18,5,4,-9
,31,13,17,16,5,2,-5,1
,-31,-4,6,-27,-12,-13,-15,-8
,-5,-21,0,0,-15,1,12,-4
,-37,-9,-8,-9,-2,3,6,14
,12,7,-14,-9,4,-12,-15,-8
,34,19,23,26,-5,2,-4,-5
,-19,-2,-10,-19,15,8,5,7
,-4,11,-13,-6,-7,-13,-12,6
,25,-22,10,18,1,9,9,-1
,33,-3,-5,-7,-11,-6,-6,-14
,-41,3,2,-4,-19,-7,28,16
,17,3,-4,-19,-12,0,-2,-7
,-36,-14,-11,-19,19,6,-15,-6
,-2,-17,26,88,5,-4,-14,-10
,19,34,2,-19,21,7,7,15
,46,-8,-17,8,7,1,-1,-11
,10,4,-1,16,-6,-4,29,23
,26,-20,3,-46,-20,-1,-11,-23
,-53,-25,-23,-2,14,-3,-11,3
,-2,38,18,31,-6,-2,-7,-21
,-91,-87,-39,-78,-11,1,-1,-14
,15,-65,0,79,11,1,7,4
,68,44,32,18,-7,-2,-11,-3
,-9,-25,-16,-61,-7,-4,8,4
,40,33,-17,21,-6,0,-6,-5
,-12,2,8,-12,10,2,9,28
,-45,-22,11,-7,-12,-3,-29,-37
,27,9,-7,9,6,6,19,30
,6,-1,32,-5,1,-3,2,12
,-76,4,-18,-38,-11,-1,31,10
,26,44,19,44,8,-6,-24,-39
,-24,-5,-3,-8,-4,4,21,-1
,-22,-47,0,4,1,-4,-22,-9
,21,48,-43,-53,-8,0,8,16
,-32,-8,23,42,-1,-1,-10,-22
,-4,-23,-29,-41,8,2,0,-5
,44,2,-14,35,19,4,3,19
,-7,7,34,32,-17,-7,2,1
,12,-15,-37,-43,0,5,5,7
,41,19,19,-20,-12,-6,-14,-16
,15,7,3,35,3,1,-1,20
,3,22,6,7,3,2,0,6
,12,-25,17,33,-7,-2,-8,-6
,-4,-4,-22,-47,-5,-1,2,28
,-78,-42,-2,-6,-1,-8,-4,-5
,73,50,-3,31,9,6,0,4
,-48,-15,9,-6,1,-1,1,-6
,-1,0,-28,-18,-11,-8,-5,12
,25,28,27,27,-2,3,4,-17
,-81,-39,-16,-11,-1,-4,-16,-12
,4,-16,-12,-49,-3,4,14,-2
,31,18,31,65,-2,-4,0,0
,30,35,-28,-61,0,1,7,-11
,-28,-20,7,7,0,-6,-16,5
,-12,-22,8,-14,-20,3,1,-12
,-22,-25,-57,-4,21,-1,7,14
,3,-10,9,19,-3,1,-8,-11
,16,16,-4,-11,9,6,-1,9
,13,0,16,-6,-18,-14,-11,-7
,6,-24,19,65,6,6,5,6
,-87,-14,-22,-25,0,3,12,-7
,27,-34,-47,-54,-17,-17,-16,-26
,5,28,-6,-4,-6,4,9,16
,4,3,35,24,24,4,0,-1
,-10,-7,-5,0,3,1,-18,-23
,19,-6,8,-14,-9,3,14,10
,8,37,0,-7,3,1,1,6
,-14,-26,-11,14,2,-6,-1,-1
,18,24,29,41,4,2,-7,4
,-38,-9,-9,-20,2,2,7,-15
,-26,-45,-11,24,-11,-10,19,22
,-27,32,21,-31,-3,5,-17,-27
,38,42,-11,-13,6,2,7,11
,17,-5,-12,-2,-11,0,3,2
,50,41,-15,4,18,3,-9,3
,-46,-57,16,14,-5,-1,-1,-15
,-2,-7,-5,-26,-1,-4,14,11
,31,14,18,40,-3,1,-11,-8
,-3,22,1,-35,6,-2,-10,8
,-49,-43,-13,-3,-1,-6,-1,9
,46,-22,-2,-8,-11,0,-2,-8
,-12,-6,1,11,-2,-3,8,-1
,33,-5,0,-9,-2,2,-9,2
,16,46,5,10,-8,-5,2,-3
,-47,-36,-14,-14,3,0,-5,-3
,18,9,9,18,7,-3,-10,-3
,-20,-27,-6,1,-3,-6,13,4
,36,26,-1,-14,-6,7,-4,-6
,22,15,2,-2,-7,-6,-3,7
,-6,7,5,6,0,-4,12,-2
,-6,-13,11,11,21,8,-13,-5
,7,16,4,-1,-20,-1,38,5
,4,9,-1,-7,11,1,-23,6
,-7,-11,9,10,-9,-4,-24,-7
,-8,-18,-31,-21,-2,2,10,6
,4,6,20,6,7,15,4,-3
,7,11,1,5,-5,-5,1,-3
,9,-19,-16,1,3,8,18,6
,-8,-8,-1,-2,-7,-11,-11,-2
,3,0,11,1,-1,-7,-4,-7
,8,4,-11,-7,-7,-33,-2,6
,-1,14,7,-1,5,16,9,3
,-6,-14,21,1,-3,26,11,-11
,1,-7,-27,7,-2,-10,-6,-2
,6,7,3,2,4,30,-7,-5
,2,5,-15,-2,0,-20,20,14
,-14,-13,-8,-9,-6,4,-21,-10
,5,50,24,3,1,-3,-13,-3
,7,51,-8,-4,-7,-6,21,6
,-6,-46,10,-1,2,19,-20,-4
,-4,-44,56,28,7,-27,7,12
,3,-83,-25,-12,-9,-23,-33,-10
,3,-42,-35,-9,1,-7,17,2
,-7,-36,-7,1,-16,8,-7,-17
,1,-9,64,-3,11,-23,5,8
,-6,-17,-37,-10,-5,10,6,0
,-2,3,27,4,3,10,-3,1
,1,11,11,1,-3,-5,-3,-1
,3,12,34,18,7,12,-2,22
,-10,10,-36,-25,-5,-10,-7,-41
,1,0,8,2,-8,0,-3,2
,0,23,24,2,4,-1,2,0
,-2,30,-20,-5,-7,-6,-6,-7
,-1,7,26,10,4,6,9,14
,0,-3,6,1,3,5,2,1
,2,25,32,15,11,-1,-7,0
,-6,7,-59,-19,-9,-3,9,-11
,4,14,30,7,-1,9,1,9
,-6,-26,8,-9,-10,-3,-7,-1
,0,13,-3,3,1,-20,-17,23
,-7,22,54,22,2,5,30,-24
,14,-10,-44,-21,15,12,-26,12
,-8,5,16,-4,-4,-28,-2,-19
,8,0,-45,-20,-7,30,-2,31
,-6,-15,-69,-2,1,-5,9,-19
,0,22,80,15,0,2,11,2
,3,14,55,19,1,0,-3,9
,-10,-16,-83,-26,-5,-8,6,-23
,6,6,39,3,-3,1,-9,15
,-2,14,-28,10,3,0,4,4
,-1,-16,-86,-14,-1,6,-8,-10
,-5,-17,29,-1,4,-7,6,1
,2,4,6,3,-3,5,-8,0
,0,-4,-31,1,-8,-8,-1,1
,2,3,32,-4,3,6,7,0
,-1,15,26,12,6,-3,0,-10
,-3,-19,-4,-15,-3,1,0,21
,-12,-13,-37,-10,-10,-6,-6,-30
,2,14,52,13,1,4,0,3
,1,6,5,5,6,-1,3,-1
,1,1,-28,1,9,6,-3,-8
,1,-10,-16,5,-5,-2,5,19
,-2,-4,-26,-7,-12,0,-4,-2
,2,17,31,0,-3,-5,-3,0
,-2,-5,-30,-10,3,-2,-1,-13
,-3,-8,22,4,-1,0,-1,2
,1,-6,-16,-2,2,1,-1,0
,-3,-9,-42,-2,-4,-3,1,-6
,0,6,7,-6,-12,-7,-6,2
,0,3,18,0,4,-2,-2,3
,-1,-5,-15,0,5,6,-4,-3
,0,-2,11,7,3,0,3,2
,0,-1,-31,-9,-4,0,-2,0
,0,6,4,-3,-7,-5,1,-4
,-1,5,22,1,5,-3,1,5
,-2,-5,5,-1,2,1,-2,-7
,-1,-2,-32,-1,0,1,-1,1
,0,3,25,5,-1,0,0,1
,-2,-7,-9,-2,-10,-5,-2,0
,2,4,2,-4,-11,-8,-1,-3
,1,-2,-6,0,7,2,-2,-1
,-1,6,16,10,13,7,1,5
,1,-3,-7,4,5,3,0,-1
,-2,-3,-12,-6,-4,-2,-2,-5
,1,-2,1,-8,-12,-3,-1,1
,1,2,11,-2,-1,-1,-1,0
,-3,-6,-13,1,2,2,0,-2
,-2,4,4,1,6,3,0,-3
,1,-6,-1,-2,4,-2,-2,-1
,0,1,6,-1,-3,-2,1,-1
,0,2,-4,-2,-5,-1,0,-1
,-1,-5,-1,0,-1,-4,-1,1
,-1,1,-5,-1,-4,-2,0,0
,-3,-3,-4,0,0,0,-1,-2
,0,-2,-1,-1,1,0,-1,1
,-4,-7,0,0,-2,-1,-3,-2
,1,7,-2,2,4,3,-3,-1
,-1,-7,5,0,0,-4,-1,0
,0,2,0,-9,-13,-4,-1,-1
,0,5,2,-5,-1,-2,-1,-1
,-1,-6,-2,5,5,1,-1,0
,-1,-2,3,-1,-4,0,-1,2
,-2,-1,-4,-3,-2,-2,-3,1
,-2,-4,-1,1,-13,-4,1,0
,-1,-9,2,4,9,2,1,0
,1,13,5,0,-1,-2,-1,0
,-1,-11,-8,2,4,3,0,0
,-2,-6,-9,1,2,1,1,-1
,-1,3,0,-6,-8,0,-1,-1
,-1,-2,2,-1,2,-3,-2,0
,0,0,2,-1,-7,-1,-2,-3
,0,-1,-2,-3,0,-1,0,-1
,0,4,-1,-1,1,0,0,1
,-1,-4,-3,2,4,1,0,-2
,2,7,-1,0,2,-1,0,0
,-3,-7,2,1,-1,0,-1,0
,-2,-1,0,-5,-7,-3,-1,-2
,-2,0,-1,-5,-7,-4,-1,-2
,-3,-7,-3,1,-7,-5,-1,-1
,0,0,1,-2,15,3,-1,-3
,-1,-2,-2,2,-5,-1,0,0
,1,0,2,0,2,2,0,0
,0,6,0,1,4,-1,1,-1
,2,3,3,-1,-1,-4,-2,0
,-3,-3,-6,-3,-1,-3,0,-2
,-2,-7,-4,-2,-6,1,-1,0
,0,0,0,0,-10,0,-1,0
,0,2,1,3,1,0,-3,0
,-3,-1,-5,0,1,-1,-2,0
,1,-3,-3,1,-3,-3,0,0
,-1,0,2,-2,10,4,3,0
,-2,6,0,-3,-6,-2,0,-2
,0,-3,2,0,3,2,0,-1
,-2,5,-3,-1,0,-3,-2,-3
,0,0,-2,-3,-4,-3,-5,-1
,-1,1,-2,-4,4,3,0,0
,1,0,-3,-2,-1,-3,0,0
,-1,-3,-2,-1,3,0,-1,1
,0,0,-1,-1,-5,-1,0,-1
,-1,-6,-3,-1,0,-4,-1,-1
,1,0,3,-1,-3,-2,1,-2
,-2,-2,-3,0,3,1,-2,-2
,0,7,0,-1,-2,-2,-1,-3
,0,-3,-4,-5,-6,-2,-1,0
,0,-3,0,0,2,1,-1,0
,1,-1,-2,1,-4,0,1,-2
,-1,-1,-3,-2,7,4,-1,0
,-1,1,1,0,-5,0,-2,-2
,-1,1,-2,-3,-6,-4,-1,-1
,0,-5,-2,3,7,-1,-1,0
,-1,12,5,1,10,1,1,-2
,-3,-20,-12,0,-6,1,-1,0
,-2,2,3,3,1,0,-1,0
,-1,-4,2,-4,-7,-1,-2,0
,0,-5,-3,-1,-2,-4,-1,-1
,0,5,2,0,0,-3,-2,-1
,1,2,-1,-3,-8,-2,-2,-1
,-1,-2,2,0,4,-1,-1,0
,-1,-3,-1,0,-1,0,0,1
,-1,3,4,3,2,-1,1,-1
,-1,-2,-3,0,-2,1,0,1
,0,0,-3,-2,-5,-3,0,-1
,-1,-4,0,-6,-6,-4,-1,-2
,-2,-3,-2,-1,-3,-1,-2,-1
,-1,1,1,6,13,2,-1,-1
,-2,1,2,-1,-12,-3,-1,-1
,0,-5,-2,-4,4,3,1,-1
,-2,-2,1,-2,2,-2,-2,0
,0,5,3,0,-3,-1,-1,-2
,0,0,-1,-1,3,1,0,0
,-1,-3,-3,2,-3,-1,-1,0
,0,1,0,0,-3,0,-1,-1
,1,5,4,-2,1,-1,-3,0
,-1,-6,-10,-2,-3,-1,-1,-1
,-1,-2,1,-3,-4,-2,-1,-1
,0,0,-1,0,2,2,1,0
,-1,-4,-1,-2,-1,-2,-2,-2
,-1,1,4,-1,-1,-2,0,0
,0,-3,-2,-2,0,-2,0,0
,1,0,-1,2,0,0,1,0
,-1,-2,-4,-4,-4,-2,-1,0
,1,6,3,1,1,2,0,0
,-3,-11,-4,-4,0,-1,-1,-2
,-1,0,2,-1,-2,-2,-2,0
,-1,-1,1,1,-1,2,-1,0
,-1,1,1,1,-1,-1,0,0
,0,0,-1,0,-9,-4,-2,-1
,0,5,-1,-2,3,5,0,-1
,-1,-6,-4,-1,4,-2,0,0
,-2,-1,2,2,6,-1,-1,-1
,0,-4,1,0,-4,-3,-1,-1
,-2,-2,-1,-5,-6,-6,-1,-2
,-1,-5,-6,-3,-5,-1,-1,0
,0,1,-2,-5,-1,-2,0,-2
,-1,0,0,1,3,1,-2,-1
,-1,0,-1,3,0,-1,-1,-2
,-1,1,-1,-1,-1,1,2,-2
,0,2,4,-1,-2,-2,0,-2
,0,-4,-4,0,0,1,0,1
,-1,0,-3,-3,2,-1,0,-1
,-3,0,1,-1,-4,-1,-2,0
,-3,-9,-3,-1,1,-1,-3,-1
,-1,13,3,1,-1,-2,0,-1
,0,-14,-6,-1,4,2,0,0
,1,1,0,0,-11,-2,-1,-1
,-2,-2,-5,-4,7,2,1,0
,-2,1,1,2,-1,-2,-1,0
,1,1,-1,1,-4,-1,-1,-1
,-3,-2,-2,1,0,-3,0,-2
,-1,-3,-2,0,-6,2,-1,0
,0,-2,-2,-1,5,2,0,0
,1,4,4,-2,2,-2,-1,1
,-1,-6,-4,-5,-2,2,-1,-1
,0,-1,2,1,-5,-2,-2,0
,0,-2,-1,-1,-2,-1,0,-1
,-1,-2,-1,3,-2,-1,-1,-1
,0,1,-1,-1,4,-2,-1,0
,-1,2,-1,0,-1,-1,0,0
,0,-1,1,0,-4,-1,-1,-1
,1,3,1,-3,-6,-6,0,-2
,-2,1,1,-2,3,5,0,-2
,0,-1,-4,-1,-4,-3,-1,-1
,-1,-1,-1,-1,2,-1,-1,0
,-3,1,-1,0,0,-2,-2,-1
,0,2,-2,0,3,-1,-2,-1
,0,-2,2,-1,1,2,0,-2
,0,-1,-3,-3,3,-1,1,-3
,0,-1,0,-1,-2,-1,-1,-1
,2,-6,-2,1,-2,-3,-1,-1
,-2,5,-3,-1,-1,0,-1,-1
,0,3,-2,-1,-7,-1,-2,0
,-3,-7,-5,-1,1,1,-1,-1
,0,2,-1,2,1,-1,1,-1
,2,-3,0,0,1,-2,-1,-2
,1,0,-1,0,-2,-2,0,-2
,0,1,1,-1,-2,0,-1,2
,-1,-9,-7,-1,-2,-2,1,0
,0,5,-1,-7,-5,-2,-1,2
,-2,-1,-1,-1,-5,0,-2,2
,-1,-1,1,0,3,-4,-1,-1
,0,0,0,0,-3,5,0,-1
,-1,-4,1,2,-1,-2,-1,-2
,-1,2,-2,-3,7,0,0,-2
,-1,-2,-3,0,9,4,0,-1
,-2,-2,-2,-1,-4,-4,-2,0
,0,-4,-2,-1,-4,-2,-2,-1
,-1,0,0,1,-8,-3,-2,-1
,0,2,1,-1,0,-4,-1,0
,-1,-1,1,-2,0,0,-1,0
,-1,-1,-1,-1,0,1,0,-1
,-1,-3,0,0,1,0,0,-1
,-1,-4,-2,-1,-1,-1,-1,-1
,1,2,2,3,1,-3,-1,0
,0,-2,1,3,-6,-1,-1,1
,0,0,-2,-4,0,-1,1,-1
,0,1,0,-1,-1,3,0,-2
,-1,0,-1,-2,-3,2,0,-2
,-2,-1,-4,-3,-1,-2,-1,-1
,-1,-3,-3,-2,-1,-2,-1,-1
,1,-1,1,1,-4,0,0,1
,-1,1,1,-2,-6,-5,-2,0
,-1,-3,3,1,12,3,1,0
,0,-2,-1,2,-3,-1,0,-1
,0,0,-1,-1,-3,0,-1,-3
,0,2,-2,-1,-6,0,-2,-2
,-2,2,-3,-6,2,-1,-1,-2
,-1,-3,2,-1,1,-1,1,-1
,-1,-4,1,6,-2,-1,0,0
,-2,0,1,-1,0,-4,0,-1
,-1,-2,-1,1,-4,-3,0,0
,-1,6,1,-2,-1,3,-2,1
,-1,0,0,-3,-3,-1,0,-2
,1,-2,1,1,-1,1,-1,0
,0,-3,-3,-1,-1,-1,0,0
,-1,-5,-3,1,2,-1,-1,0
,1,1,-2,-1,0,0,-1,1
,-2,-2,-3,-5,0,-3,0,-1
,1,-1,-1,-2,-2,-3,-1,-2
,-2,-3,2,-3,-1,3,-1,-1
,0,2,-1,-3,-1,0,0,-1
,1,0,-1,6,9,1,-1,-1
,0,-1,0,3,1,0,-1,-1
,0,-1,-1,0,-7,-5,0,-1
,-2,-2,-2,-5,-2,-2,-1,-2
,-2,-1,0,-2,-13,-4,1,1
,-1,-3,-2,0,9,0,-2,0
,0,0,-1,0,-3,1,-1,0
,-1,2,-5,-3,-2,-2,-1,1
,1,1,2,3,6,3,-1,0
,-1,-8,-2,0,-6,-1,-1,-3
,-1,6,2,2,0,-1,0,0
,-3,-2,-2,-1,-2,1,-2,-1
,0,-2,-4,-2,-3,-1,-2,-1
,-2,1,0,-1,-5,0,1,-1
,0,-5,0,-2,1,0,0,-1
,0,-1,2,1,-1,-3,1,-2
,-1,2,0,-1,3,0,-1,0
,0,1,2,-3,0,2,0,-1
,0,-1,-3,2,-2,-1,-2,-1
,-1,-2,-2,0,-1,-2,-1,0
,0,-2,1,-4,-1,-3,-1,-1
,-1,1,-2,-2,-2,4,1,1
,-1,1,-4,-1,1,-1,-1,0
,0,1,-2,-1,0,-1,-2,0
,-1,-1,-2,0,-6,-3,-2,-2
,0,-1,-1,-3,8,-1,-2,0
,-2,-3,-2,0,-6,-4,-1,0
,0,2,1,0,4,2,0,1
,-3,-7,-6,-2,1,1,0,-1
,0,7,3,-3,-8,-1,0,0
,-1,-6,-2,-1,1,-1,0,0
,-2,3,0,-2,-4,-3,2,0
,0,-1,-2,2,6,1,0,-1
,-2,-2,-1,-1,-2,1,-1,-2
,0,-2,-1,-1,1,-1,-1,-1
,-1,-1,0,0,-1,1,-1,-1
,0,0,0,-3,1,-2,0,-1
,1,-2,-3,1,-2,-1,0,-1
,0,0,-1,-1,2,0,-1,0
,-2,-1,-1,1,1,1,0,0
,-2,3,-1,0,-2,-1,-2,0
,0,1,3,0,-5,-3,-2,-1
,1,-1,-1,-2,7,2,0,0
,1,0,0,2,-2,-1,0,-2
,1,-4,0,0,0,0,-1,0
,-1,-1,-1,0,-4,-3,0,0
,0,0,-1,-3,-1,1,-1,-1
,-2,-2,0,-3,-8,-2,-1,-2
,-1,0,0,1,2,-1,-1,1
,-1,2,-1,3,5,-2,-2,0
,-1,2,0,-2,-5,-3,-2,1
,0,-1,-2,-2,-1,-1,1,-2
,-1,-1,-2,1,0,-1,-1,-1
,-1,-3,-1,0,-2,0,0,0
,-1,-2,-1,0,3,1,-1,-1
,-2,-1,-2,-3,-4,-3,-2,0
,0,-1,-1,-2,-1,0,0,-2
,-1,-1,-1,2,2,-1,0,0
,-1,-1,-2,-2,-7,-1,0,1
,0,-1,-1,-4,-2,-3,-3,-2
,-1,-1,-1,-1,2,2,0,0
,0,0,-1,-2,-6,1,-1,-1
,0,0,-1,2,8,2,0,-2
,0,-6,-1,0,0,0,0,0
,-2,5,-1,-1,2,-2,-1,-2
,-2,-2,-1,-1,-6,-3,-1,0
,0,-2,2,2,-5,-3,-1,-1
,-2,0,0,1,4,1,-1,1
,0,-3,0,-3,-10,-2,-1,-1
,-1,-2,1,-3,1,-1,-1,0
,-1,-1,0,-1,-3,-2,-3,0
,-1,1,-2,2,3,0,-1,0
,-1,-1,-2,-1,-1,1,-1,-1
,0,0,-4,0,5,-1,0,-1
,-3,-3,-1,0,-1,-2,-1,-2
,-2,1,1,2,0,-1,0,-1
,-2,1,0,2,-2,1,0,0
,0,0,1,0,2,-1,-1,-1
,-1,1,1,-2,-2,1,-1,0
,0,-2,-1,-3,-3,-2,-1,-2
,1,-1,-2,-5,0,1,0,-1
,-1,-2,-2,1,-3,-1,-1,0
,-1,-4,-4,-1,-2,-2,0,-1
,1,8,0,-2,0,-2,-1,0
,-1,-2,-1,-1,4,1,-1,1
,-1,-1,-1,-1,0,-1,-1,-2
,0,4,0,1,1,1,-2,-1
,-2,-12,-6,-2,-1,-2,0,0
,-2,1,0,-2,-2,0,-1,-3
,-2,-1,0,-1,-4,1,1,-2
,0,1,1,1,2,-2,1,-1
,1,-1,0,1,-2,-2,-1,-1
,-1,1,1,0,-6,-4,-2,-2
,-1,1,1,-4,3,-1,-1,-1
,-1,-3,-1,-3,-1,-2,-1,-2
,0,0,-1,0,-1,1,0,-2
,0,-7,-4,0,5,0,-1,1
,-2,1,1,0,-3,-2,-2,-2
,-2,-2,1,3,1,1,-2,-1
,0,-5,-4,-4,0,0,0,-1
,-2,1,3,0,-5,-3,-1,-1
,-2,-3,-4,-2,0,-1,-1,0
,0,-1,4,2,5,2,1,0
,1,-2,1,2,-1,-2,0,0
,2,-3,-7,-3,1,0,0,-1
,-1,0,-2,0,-3,-1,0,0
,-3,-8,-3,-4,-6,-3,-1,-2
,-1,4,3,-2,1,0,-1,-1
,0,3,4,1,0,-3,-1,0
,0,2,2,0,0,-1,0,0
,-3,-9,-6,-1,-1,-2,-3,2
,-1,8,1,-3,2,2,-2,-1
,-3,0,-1,-1,-2,1,-1,0
,0,-5,-4,-1,2,0,1,-1
,2,2,1,-1,2,-2,1,0
,-3,-6,5,9,-3,0,0,-1
,5,-1,9,1,-1,0,0,2
,2,-9,-30,-3,-3,2,0,1
,-1,2,7,-3,-1,-2,-1,-2
,-4,-2,-9,-1,0,-1,-1,-2
,-2,1,16,-1,4,0,-3,-1
,0,-9,4,0,-8,-4,-1,-2
,4,15,-2,-1,7,-2,1,2
,1,2,2,0,-4,2,0,1
,-5,-3,-8,1,-1,-1,0,-1
,4,2,-1,-2,-1,-3,-3,0
,-8,-4,-4,-1,-6,-1,-1,-4
,-1,0,1,0,3,1,-2,-2
,-2,0,-5,-4,0,-2,0,-2
,2,-5,4,-1,-1,-1,0,-1
,-1,2,0,-3,-9,-2,-2,-1
,1,-2,-6,1,4,0,1,0
,2,-3,-4,1,-1,3,1,0
,-5,4,6,2,2,-1,-2,-1
,1,3,2,2,1,0,1,-1
,-5,-15,-6,-7,-3,-2,0,-2
,0,-3,-3,0,-4,0,-1,0
,-2,11,12,2,3,-3,0,-1
,-2,-10,-18,-16,-2,-1,-1,-2
,2,7,1,-2,-2,-3,-1,-1
,-2,-1,-5,-3,1,1,1,-3
,-1,-3,-1,5,-3,0,1,-1
,2,-4,6,15,2,0,-1,1
,-1,5,3,-6,-4,0,-3,0
,-2,-5,-6,-3,-3,-3,-2,-1
,-1,-1,1,-4,-3,-2,-2,-2
,-2,-3,-1,0,-12,-2,2,-2
,-1,1,4,-2,9,2,0,0
,-1,0,2,0,1,-3,-2,1
,-1,-1,-1,-2,-3,1,-1,-1
,0,1,1,-2,3,-3,-2,0
,-1,0,-1,-2,-6,-4,-2,-2
,-1,-4,-5,-2,2,1,-1,-2
,-1,0,-2,-3,8,2,0,-2
,-1,0,-2,-1,-4,3,-1,-1
,0,-1,1,1,-3,-2,0,-1
,-2,1,-2,1,-1,-1,2,-1
,-2,1,1,1,-3,-1,-1,-1
,1,-5,0,1,1,0,0,0
,2,-1,0,1,-3,-1,-2,-2
,0,4,-1,-8,-2,-3,-2,-1
,-1,1,-1,-2,-2,-2,-1,0
,0,-1,-1,-2,0,-1,-1,1
,-1,-1,0,-1,1,-4,-3,-1
,-1,-1,1,5,-5,1,-1,0
,-2,-2,-1,0,-1,-3,0,0
,0,1,-4,-1,-1,-3,0,-1
,0,1,-2,-2,-3,-2,-1,0
,0,-3,0,1,3,-1,0,-2
,-1,-3,-6,-3,6,2,-1,1
,-3,-4,-4,3,1,0,-3,-1
,-2,0,-3,2,-2,-4,-1,0
,-1,4,-2,-1,-2,-1,0,0
,1,-4,-2,0,-3,0,-1,-1
,-1,7,1,-2,-1,-1,0,-2
,-2,-7,-3,-3,-1,1,0,-2
,0,1,0,-1,-1,-1,-1,-1
,0,0,2,0,2,1,0,0
,-1,2,3,0,2,1,1,-1
,0,1,-1,-2,0,-2,2,-1
,0,-7,-1,-2,-2,-1,-1,-1
,-2,13,-3,-3,0,-1,-2,-2
,-1,-4,1,1,2,1,1,-1
,0,1,2,4,5,1,-1,0
,0,1,-2,0,-2,-2,0,-2
,1,-1,-2,1,-3,-1,-1,1
,0,-2,-3,-4,-4,1,-1,1
,2,-2,2,0,0,-1,-1,0
,4,-11,0,-2,-1,-1,-1,-2
,1,9,7,-4,-2,-1,-2,-1
,-1,-9,-4,1,-1,-1,-3,0
,0,0,-3,-1,1,2,-1,0
,-4,0,0,-1,0,0,0,1
,-5,-4,3,-1,1,-2,1,-1
,-1,-3,-4,-2,-13,-7,-1,-1
,-3,2,3,2,5,4,1,-1
,0,3,-4,-1,7,0,0,-1
,-1,-7,-2,3,4,0,-1,-2
,1,1,-3,-1,-2,-1,-1,-2
,-2,-4,-3,-1,-7,-5,-2,-1
,-2,-7,-5,-2,-7,-1,-2,0
,-3,-5,-3,-1,-5,0,0,0
,-2,2,2,-2,0,-2,0,1
,0,-6,-3,-3,-5,0,1,-1
,0,4,3,-2,4,0,0,-1
,1,-14,0,2,-2,-2,0,-1
,0,-2,-3,0,6,1,-2,1
,0,8,2,-2,1,-1,-2,-1
,-1,2,1,-2,0,0,1,0
,1,-6,-3,0,-3,-2,0,-1
,0,6,1,-3,6,4,-1,-2
,-3,-8,-3,-2,3,-2,0,-2
,0,5,5,6,0,3,0,0
,-2,-3,-2,-4,-6,-2,0,-1
,0,3,2,4,-2,-1,0,0
,1,6,1,-1,4,-2,1,1
,-2,-5,-1,-3,-3,-4,-3,-1
,-1,3,-1,5,1,2,-2,-1
,-1,-3,0,2,-5,-3,-1,-1
,-1,1,0,-2,-5,0,0,-1
,0,-12,-7,-2,2,3,-1,0
,1,-2,-2,-1,-1,0,1,1
,0,3,0,-1,-2,-1,0,-1
,0,-2,0,2,-1,-3,0,-2
,-3,-1,3,1,-4,-1,-1,-1
,-3,2,-4,-7,-3,0,-2,-1
,-3,-11,-4,-4,-2,-4,-1,-1
,0,-2,-2,0,-4,3,0,0
,0,3,1,2,2,-3,0,0
,-2,-4,0,-2,1,-3,-2,-1
,-3,9,2,0,4,-3,0,-2
,-2,-2,-1,-4,-4,-4,-3,-1
,0,-4,-1,-4,-5,-2,-1,-1
,0,7,-2,1,-1,1,0,-2
,0,3,-2,5,3,3,2,0
,2,5,-1,1,-5,-2,-2,-1
,1,0,-2,2,-3,-4,0,-1
,1,4,-1,-2,-1,-2,-2,0
,-1,-4,1,-4,-5,-2,-1,-2
,-5,-2,-1,-1,-4,0,1,-1
,-9,1,0,2,10,-1,-1,-1
,-3,-1,-1,-2,0,-3,-2,0
,0,-2,0,-1,3,2,-2,2
,2,-6,0,2,-1,-2,0,-1
,3,1,-2,-3,-1,0,-2,0
,2,-2,0,2,0,3,-1,-1
,2,-3,-5,3,-2,-2,-1,0
,3,2,1,-3,-2,0,-1,0
,1,-4,-9,-7,-8,-1,-1,-1
,1,-1,5,4,2,2,0,0
,2,-2,-13,-16,-1,1,0,0
,1,1,-1,4,3,-1,-2,0
,-3,0,1,-1,-2,-1,-2,0
,1,5,3,-2,-4,-4,1,-1
,-4,-4,2,2,0,-3,-1,-1
,-4,-7,-7,-5,-2,-2,0,-1
,0,0,0,2,0,-2,-1,-2
,-1,-5,0,1,2,-1,-2,-1
,0,-2,6,4,2,-1,-1,0
,0,-1,-9,-1,-1,2,-2,-2
,1,0,4,2,-3,-1,-2,-1
,-2,-2,-2,-2,-3,-1,2,-1
,-2,0,-1,-1,-1,1,-1,-1
,0,0,-1,-4,1,-2,-1,1
,1,2,2,-1,-2,-1,0,-2
,1,-1,-3,1,0,-1,1,-1
,-1,-6,1,0,-15,-3,1,0
,-3,-2,4,5,10,3,-1,-1
,-1,8,0,-1,-1,0,2,0
,-2,2,1,-3,-3,-1,-1,-1
,-2,-3,-1,-5,-1,0,0,-2
,0,-9,-5,-5,-5,-2,-1,-2
,1,-6,-3,3,-1,-4,-1,-2
,0,-3,-4,-4,3,4,-2,-1
,1,1,2,4,1,-2,0,-1
,-1,6,4,2,-1,-2,0,0
,-2,-7,-4,1,1,-2,-1,-1
,-1,-4,-2,1,-3,-5,-2,-1
,0,-2,1,1,0,1,-1,-3
,2,-1,3,-2,-1,-2,-1,0
,-1,8,2,-3,-3,-3,1,-3
,-1,1,-2,-5,1,-1,1,0
,0,3,-1,0,1,2,-2,0
,0,-3,-3,1,0,-1,-1,-2
,0,-3,-2,-3,-5,1,-1,0
,-1,-3,-4,-1,0,-1,-2,-3
,-1,1,-1,0,1,0,-1,-1
,1,-1,2,7,-6,2,-1,0
,1,-3,0,-3,2,0,-2,2
,-1,-3,0,1,-1,0,0,1
,1,4,2,-4,0,-3,0,-2
,-2,-1,-2,-5,-3,0,2,-1
,-3,-3,-5,-6,-5,-1,1,0
,1,-2,-2,-1,-12,-3,-2,-2
,-1,-1,1,1,13,0,-1,-2
,-2,0,0,-1,-1,0,1,0
,2,-1,-2,-2,-3,-2,-1,-1
,1,-3,-2,-1,1,0,-2,-1
,-1,-3,-5,0,-5,-1,-3,1
,-1,0,0,-5,0,0,-3,-2
,-2,-6,-1,-2,4,2,0,-1
,-2,7,2,-3,-3,-4,2,1
,1,3,1,1,-2,-1,1,0
,-1,1,-1,1,3,-1,-1,0
,0,4,-2,1,-4,0,-1,1
,1,-1,-1,1,4,0,-1,0
,-1,-5,-4,2,3,1,-2,-1
,-1,-3,-4,-3,-5,-2,-4,1
,-1,-1,2,6,0,-3,-2,-1
,-4,1,1,0,-1,0,-2,-1
,-2,0,0,0,-4,1,-2,0
,0,-1,-2,2,5,1,-1,-1
,-1,3,-1,-1,1,-1,0,-3
,0,-4,-3,-1,0,-2,-1,0
,2,-1,0,-3,-3,0,-1,-2
,1,-3,-2,-2,-13,0,1,-3
,1,4,4,-3,8,1,0,0
,-1,-1,2,1,1,2,1,-1
,-1,-3,-1,-3,-5,-3,-1,-2
,-1,-2,0,1,-3,-1,-1,1
,-1,1,0,3,-4,-1,-1,1
,-1,0,-4,0,1,-3,-1,0
,-2,-2,-3,-2,1,-2,-1,1
,0,0,-2,-1,-1,-1,1,0
,1,-5,-1,-1,-2,1,1,0
,0,2,-1,-2,4,0,0,-1
,-2,-3,-2,0,1,-1,1,-2
,-1,4,2,2,3,-2,-2,-1
,-3,-6,-1,-3,-2,-2,-2,-1
,2,0,-4,1,-3,0,-2,-3
,-1,2,-1,-4,-3,1,0,1
,-4,-6,-1,0,1,-1,-2,1
,-3,-2,0,13,-1,-2,0,-1
,-6,-2,2,19,-3,-6,-2,-3
,-2,2,2,8,-1,0,-1,-2
,0,-4,0,-1,-2,-3,2,-2
,1,0,-3,-13,0,2,1,-1
,1,2,4,-16,-10,-1,4,0
,1,0,1,-12,8,-2,2,1
,1,-1,2,-5,2,0,-1,1
,0,0,0,-3,1,-1,-3,1
,1,-12,-7,-2,-2,-2,-2,-1
,1,2,0,0,-3,-2,-2,-1
,0,-3,-4,0,1,-2,-1,-3
,-1,-4,-4,0,-1,-1,0,0
,0,4,-2,1,0,2,-1,-1
,1,-5,-5,0,-3,0,-1,0
,1,-7,-4,0,-3,-2,-1,-2
,-3,17,-2,-2,-2,-2,-2,-2
,-2,-2,-1,-2,2,1,-2,0
,2,-3,-1,4,3,0,2,-2
,1,8,1,2,0,-2,0,-2
,-1,-7,-1,-3,-4,-4,1,-3
,0,-1,0,-6,-1,-6,-3,1
,-2,-3,-1,0,1,2,-1,1
,-2,-4,-5,-4,-2,1,-1,0
,-2,-2,2,-5,-1,1,3,-2
,-2,-4,1,-3,0,0,2,0
,1,4,1,2,-3,0,0,0
,-1,-5,-2,6,3,1,-1,1
,0,-1,1,4,4,-1,1,-2
,-2,2,1,-1,-4,-2,-3,-2
,-2,-1,-1,-1,-1,-2,-2,0
,-1,3,2,-3,-3,0,-1,-1
,-11,-4,1,-2,-3,-1,-1,-1
,2,1,0,3,4,1,1,1
,0,3,-2,-3,-5,-2,1,-2
,-2,3,0,1,3,-1,0,0
,3,-6,-7,-4,-3,0,-3,-1
,-2,4,-4,-3,-1,1,-4,0
,-2,-2,-4,-4,-5,-2,-4,-1
,-2,5,0,6,2,0,0,1
,2,0,-1,-2,2,3,-2,-1
,-2,-3,0,1,0,-1,2,-2
,2,4,4,-1,1,1,0,1
,2,-3,1,-2,-6,-3,2,-1
,2,-2,-2,4,0,0,1,-1
,1,2,-1,0,-1,-1,0,-2
,-4,-18,-5,2,1,-2,-1,-1
,-1,9,4,-6,-2,0,-4,-1
,-3,-3,-4,-5,-2,-2,-1,0
,-2,2,4,-2,5,0,-1,0
,-1,1,-6,-1,9,1,1,-1
,0,-3,-5,3,-2,0,0,0
,0,-2,-2,-1,-7,-1,0,0
,-2,0,1,-3,-6,2,0,-2
,-1,0,3,1,-4,-2,0,-2
,1,-2,-3,-4,1,0,0,0
,1,1,-1,1,1,-2,-2,0
,-1,-5,-2,3,1,0,0,-1
,0,1,2,1,-5,-3,-3,0
,-2,-2,2,-1,0,-6,-2,-3
,-2,0,2,1,0,4,0,1
,-3,1,0,-4,-1,-3,1,-1
,0,-1,2,-4,1,-2,-2,0
,0,0,-3,-5,-5,2,0,0
,1,-3,0,6,-1,-2,-3,0
,0,-7,-4,-4,2,1,-2,0
,0,9,2,-1,-5,-2,-1,-2
,-1,-4,-1,-1,0,-2,-3,-1
,-4,0,1,3,0,3,-1,-1
,-1,-2,-1,1,0,0,1,1
,0,2,2,-2,-1,0,-2,-1
,0,-8,-2,-4,-4,0,0,0
,2,4,0,-2,1,-2,0,-3
,1,-7,-4,3,-3,-3,-3,-1
,-1,-3,-3,-1,0,-1,0,0
,-1,3,-1,-2,1,-1,-3,0
,-1,-8,-5,-1,-10,-4,-1,-2
,0,-1,-3,-2,12,-1,2,0
,-3,-1,1,-2,-2,-2,-1,2
,-3,1,1,-2,2,2,3,1
,-1,-3,-14,-8,-2,-2,2,-1
,-1,0,3,0,-5,2,0,-3
,-3,-5,-5,3,-1,-1,-2,-1
,2,-1,4,2,0,1,-3,-1
,1,0,2,3,-1,-3,-3,0
,1,7,-2,2,-2,1,-3,0
,0,-5,3,1,2,0,0,0
,1,4,2,1,-3,-3,0,0
,2,1,5,4,7,0,-1,0
,2,-8,-28,-4,-2,-4,-1,-1
,-3,2,1,1,-2,-1,1,-3
,1,-9,-3,1,0,2,-1,-1
,-3,4,6,-1,1,1,-2,-1
,-7,-5,9,-2,-2,1,0,-3
,0,5,2,-2,-4,0,0,-1
,1,7,-4,-3,-13,-3,1,-2
,-8,3,-3,-1,15,3,-1,0
,3,-5,-3,1,0,-2,-2,3
,1,1,0,-5,-5,2,-3,2
,-2,-1,3,10,1,-4,-2,-2
,-1,0,6,-5,-9,-1,-1,0
,1,3,3,0,1,-2,0,0
,0,-5,-2,-7,-1,-2,1,1
,-4,-1,0,0,7,-1,0,-3
,0,-4,-1,4,1,-2,-1,-2
,-1,1,3,-1,1,-1,-3,1
,-4,5,1,0,-1,-1,-4,-1
,2,3,-7,-5,-3,-4,-3,1
,2,-1,-1,2,0,0,2,0
,-3,4,4,0,-2,4,1,1
,8,-4,9,2,-3,1,0,0
,-10,0,-1,-3,-2,-1,-1,-1
,-1,-5,1,-4,-4,-3,0,-2
,8,2,1,-2,-15,-5,-1,-1
,-2,-4,0,1,13,4,-1,1
,0,-4,-26,-5,2,1,-3,-1
,1,0,1,1,-3,1,0,-1
,4,-1,-2,7,-3,-6,1,0
,-13,3,-8,1,3,-3,1,-1
,9,-2,8,1,3,1,1,2
,-5,2,7,-1,-5,-4,-1,-1
,-2,-2,-17,-7,-3,1,-2,-3
,-1,-4,-3,0,-3,-1,-1,-4
,-6,2,11,-3,3,0,-1,-1
,6,7,5,0,-2,0,0,0
,-14,0,13,6,5,0,1,-3
,3,-3,-9,0,-2,0,0,-1
,0,0,-1,-1,-1,-1,-2,-1
,5,-4,3,-3,-10,-8,-2,-1
,-16,-3,-23,4,16,4,-1,-1
,7,0,25,-3,-9,-8,-2,2
,8,-4,25,-3,-6,-3,0,-1
,-4,-2,-43,-6,-2,2,1,3
,-10,3,8,-8,-3,-2,-3,-4
,7,-3,22,11,2,4,0,-1
,7,-1,-59,0,-1,0,2,5
,-5,-1,42,-8,-7,-4,-3,-6
,9,7,15,0,-2,1,4,2
,-5,1,-25,-5,-1,-2,-3,-7
,-4,-12,3,-2,-4,-2,-2,-3
,5,-3,-24,2,8,1,2,4
,-5,-6,11,-3,-1,-2,-1,-2
,0,5,15,4,-4,-2,1,-1
,-3,1,-1,5,3,0,1,-3
,0,-7,-22,-1,3,1,1,-1
,3,-2,14,1,2,2,-2,2
,0,-4,-13,-3,6,2,-2,1
,-3,5,7,-2,-2,-2,2,-3
,-4,-10,-13,-2,0,-1,0,-2
,6,1,4,-3,-9,-4,-2,-2
,-5,-2,-18,-6,-3,-1,1,-1
,0,1,7,0,2,0,0,0
,-1,3,10,2,2,-1,0,0
,-1,0,-9,-3,-1,1,-1,0
,0,-1,9,-5,-6,-1,-2,1
,-4,-6,-26,-4,-2,-2,-3,-1
,0,6,22,6,3,-1,-1,0
,0,-7,-17,-2,0,-2,-1,2
,-6,-3,-9,3,1,-1,1,0
,0,7,24,-1,-6,-1,0,-1
,-3,3,-14,-3,-2,-1,-3,-3
,0,-1,20,1,3,2,0,-2
,-2,3,-4,-7,-6,-5,-1,0
,-4,-1,-5,9,11,5,1,0
,16,-11,-1,-6,-1,-1,3,3
,-8,-9,-35,-3,-1,-2,-2,-3
,8,2,-7,0,-4,-3,-2,0
,-10,-2,8,-3,-2,-2,-2,-4
,-1,8,5,0,0,2,-1,-1
,7,-6,0,-4,-5,-2,0,4
,-6,-4,-7,-3,-1,3,0,3
,-5,3,9,7,1,-1,-1,-10
,-5,-2,3,7,0,1,-2,-4
,3,5,-13,-11,0,-1,3,-1
,-2,-3,-7,-1,-2,-2,0,-1
,4,-3,13,-8,-1,-2,-3,3
,-5,-2,18,-1,-5,-3,-1,0
,0,4,1,5,1,0,-1,0
,0,2,0,3,0,1,-3,-1
,-2,-4,-5,2,-6,0,-1,-2
,-1,3,-2,2,-5,0,-1,-3
,4,7,-5,3,-3,1,1,1
,-4,-18,23,-8,-6,-5,0,0
,2,4,-3,2,15,5,-1,1
,-16,-5,14,-3,-6,-5,-3,1
,-2,3,4,1,1,-3,-2,-1
,-3,-7,-22,5,1,-1,5,-7
,4,-4,-33,-14,-4,0,-1,14
,-6,-13,5,-4,4,4,4,-1
,0,6,16,9,-5,-3,23,-4
,8,4,-3,-10,-5,-5,-46,-11
,4,15,3,8,1,1,1,2
,23,-7,-45,-4,6,3,-1,4
,-16,-2,44,-9,-1,-4,0,7
,0,-2,-9,2,3,0,9,3
,0,-1,-19,-3,-3,-3,-4,-6
,-4,3,22,1,-3,-3,-6,0
,8,-4,-19,-4,3,0,-4,-12
,-3,10,26,5,8,5,9,0
,5,-2,10,3,-6,0,40,5
,0,-3,-30,-1,1,-2,-20,-13
,3,-4,3,-4,-7,-4,-39,9
,37,14,50,-1,-1,1,27,-9
,-54,-7,-59,0,-1,-5,-22,-1
,-48,-30,-5,-2,-2,-1,6,5
,-28,-12,-10,5,5,0,36,-12
,76,13,4,-3,4,4,66,9
,-58,22,30,-4,-6,-7,-95,6
,76,16,-3,-7,-8,0,111,15
,-39,0,-8,28,5,-1,-116,-23
,64,19,54,-14,-4,-2,-12,3
,-32,-8,-20,-19,-13,-2,68,27
,-56,-4,27,23,10,1,-37,-44
,88,-13,-14,-34,4,-2,95,30
,-20,45,-86,-9,-5,-12,-123,-18
,-6,-67,59,14,-9,-2,20,-16
,69,-33,21,-6,-11,-6,67,-17
,-83,-14,-24,11,-3,-13,-93,6
,8,4,-24,-5,2,1,101,-45
,126,56,37,-5,6,7,2,34
,-54,-54,-28,3,-4,-2,-62,26
,-13,31,21,20,-4,2,34,-19
,-7,-50,-6,-11,6,0,-39,11
,31,22,-77,16,19,13,4,-25
,81,76,42,6,7,0,-73,21
,62,92,66,-14,-17,-1,-2,-34
,-118,-92,-74,7,13,8,-41,20
,72,-91,121,7,-22,-15,127,-19
,28,61,-41,-28,14,10,-5,27
,49,-3,-30,-1,-4,2,-110,30
,-25,5,9,17,-3,4,101,2
,22,53,7,45,-4,-12,-45,-29
,-117,-28,-13,10,4,4,21,1
,36,-44,-14,0,1,2,36,-25
,24,-18,7,8,4,1,12,39
,-23,3,-53,-15,19,8,-31,6
,-21,-8,-5,-7,-21,-15,3,-2
,-27,-55,-23,-31,-7,-2,31,0
,-62,22,28,41,-26,-8,-17,-1
,49,5,-19,-27,8,0,-26,16
,33,26,2,-14,11,3,2,13
,110,33,-21,-31,7,2,65,19
,-20,4,7,39,9,4,-33,14
,-54,-37,18,-6,-4,-8,9,-8
,-57,-41,-3,-1,-1,4,3,-28
,-72,-26,19,21,-15,-12,-6,-7
,40,51,-10,-44,-12,0,-18,-9
,62,45,12,-9,6,4,4,-31
,-33,-46,6,22,3,-2,-4,-32
,-16,-46,-40,-32,9,12,33,50
,1,56,21,-2,-2,-1,-20,-28
,-128,-106,-15,-61,-23,-14,-15,-46
,89,52,-7,12,-37,-11,-16,28
,28,41,7,22,35,10,40,15
,95,7,-2,-12,14,0,-56,-10
,-45,-13,-15,23,-20,-5,-33,9
,78,29,23,47,21,8,42,24
,87,65,0,13,-5,-4,6,4
,-59,-25,0,-26,0,0,35,-13
,-64,45,4,-37,-8,-6,-16,24
,-92,-106,-21,-14,-10,-7,-16,-20
,29,-30,12,14,9,10,0,-13
,6,9,-4,-10,-3,-7,3,19
,-5,1,26,49,-7,3,-37,-36
,-88,84,-33,-67,16,3,52,21
,45,-21,5,54,3,-5,-1,1
,-9,-18,31,30,-6,-6,8,-1
,76,10,-51,-54,-22,-5,15,51
,-2,-13,15,22,14,9,-40,-34
,-128,-1,10,-17,-26,-12,-32,-14
,-31,-51,-46,-9,22,6,30,5
,127,78,24,40,27,15,42,50
,-79,19,4,-9,8,-3,-19,-16
,-5,-32,-1,-3,-32,-4,-6,13
,29,66,23,14,-32,-16,-21,-50
,-27,28,31,36,51,12,14,19
,127,-63,-83,-71,-5,-8,7,19
,50,51,34,6,0,-8,-35,-33
,-23,7,-19,-19,-6,0,20,25
,55,8,-5,-12,-6,-2,-29,-21
,57,71,54,34,-12,-2,-19,7
,-53,-86,-53,-39,5,-13,7,1
,-42,-2,-4,19,5,-6,-6,-12
,94,81,11,1,11,7,20,23
,-68,-46,13,34,-11,-5,-19,-21
,-59,22,-5,8,7,14,-5,-29
,94,-1,19,-10,-11,-4,18,22
,-66,-86,-19,-7,-5,-8,5,1
,-26,71,-4,-28,6,16,-4,-2
,35,-9,1,-8,-14,-7,36,-13
,49,51,13,17,12,1,-8,10
,-78,-91,-25,-19,-13,-1,-25,-60
,13,-14,12,-2,-5,-17,2,16
,-28,6,9,37,13,16,27,20
,25,29,14,20,9,-2,-18,-18
,1,66,-7,16,18,10,3,36
,14,-29,19,-2,-24,-4,4,-26
,-88,32,-7,-1,15,0,-4,-15
,26,48,15,-2,-10,5,-7,10
,-20,-72,-10,-34,3,5,6,-38
,76,-14,8,41,3,6,43,46
,34,-11,12,13,0,-4,-6,24
,-23,-12,-27,-38,16,9,-21,-13
,39,41,18,20,-17,-15,-39,-50
,41,100,1,-22,-11,2,43,43
,-76,3,-6,-11,-7,-3,-3,-15
,74,-57,0,32,7,11,-14,-29
,39,-52,-15,11,-9,-9,34,30
,47,-9,12,-5,10,4,-15,-26
,42,41,0,18,16,2,17,12
,-11,64,23,-4,-7,1,-31,-47
,-55,-86,-25,-30,-15,-13,5,21
,-88,-4,-7,7,-2,-8,-2,16
,121,31,11,6,2,6,9,-8
,-86,-67,-15,-32,-1,-7,-30,-6
,103,64,15,6,-20,-11,19,36
,-118,-70,-27,-19,-14,-10,-24,-23
,-78,-24,-5,2,8,-3,-29,-32
,-54,15,4,-9,-8,-1,30,48
,15,46,7,-7,21,20,0,-33
,127,35,27,62,2,-2,-29,-7
,-13,14,-26,-72,-28,-6,40,50
,-8,-45,-33,-37,9,2,0,-15
,-57,69,22,11,15,7,-27,-17
,46,13,-11,-18,1,7,32,18
,-68,62,24,15,-12,-2,-6,9
,-43,-69,-17,1,-32,-25,16,30
,-25,34,-6,16,9,7,-27,-41
,39,-25,-2,-25,-1,8,15,21
,-22,28,9,3,-1,-12,-20,-4
,-18,-19,-17,-39,24,17,26,4
,-70,-39,-4,27,-16,-15,-18,-14
,35,-24,17,26,0,-1,-15,-37
,16,49,-30,-20,15,3,-1,6
,41,-19,-17,-15,-9,5,1,8
,9,-18,-1,4,-12,-10,21,21
,-67,32,2,-18,1,-6,-25,-25
,124,-8,12,3,-2,11,20,6
,-69,-25,-5,23,-6,-12,-6,-4
,21,7,4,-2,0,1,-16,9
,9,16,-14,-4,-8,-8,1,-15
,-84,2,-10,-15,0,-3,6,20
,5,-33,8,35,-5,-4,15,15
,-54,6,-30,-30,6,4,-27,-32
,18,-50,-12,19,9,-3,20,69
,-39,17,2,-23,-6,1,-10,-21
,-14,1,0,-18,-4,-2,12,9
,-11,5,3,15,-9,-6,0,8
,26,9,-10,-13,12,1,-36,-60
,-19,-24,19,40,9,-1,16,21
,-14,20,8,-2,-14,-4,8,7
,52,-14,8,-4,2,4,0,-1
,-115,18,-5,23,16,4,-12,-29
,27,-43,18,-8,-7,1,3,-8
,51,74,19,33,11,6,-15,-3
,-4,-80,-30,1,-6,-1,3,-7
,-2,41,7,-20,9,12,30,34
,-59,-78,-14,-1,-10,-5,-8,-9
,25,-10,14,-3,-10,-2,12,-6
,-8,9,-6,-15,10,5,-15,-6
,84,53,21,34,-6,-3,-11,-3
,-22,-37,7,7,2,-2,0,2
,34,-46,-27,-8,3,-2,0,-3
,-1,25,28,-33,-12,-6,16,21
,6,-37,-41,-6,5,-5,-30,-31
,21,0,2,11,-7,1,-15,-2
,-25,24,5,-11,18,9,-4,-8
,40,-10,24,79,-7,-8,23,27
,-9,39,-2,-37,3,7,22,6
,-2,-26,-17,-19,-3,-4,-15,-6
,13,41,7,16,2,2,-10,-3
,3,6,-5,-13,7,3,4,2
,-66,-7,20,-8,-17,-10,2,9
,22,-3,-7,15,3,2,-9,-23
,77,71,-5,-4,0,4,18,32
,-82,-14,13,-1,11,4,-11,-29
,-16,-17,-6,-51,-11,-8,-6,-15
,110,1,-7,59,13,10,15,33
,20,19,21,-16,3,-2,-12,-12
,53,87,1,16,-14,-3,10,-1
,-54,-95,17,3,0,-2,9,17
,93,20,-4,0,-8,-3,-5,-9
,-63,9,-10,-39,-14,1,10,2
,-20,-47,-14,15,21,-4,-8,-5
,16,38,7,-5,-10,4,-15,-12
,-45,-56,12,21,-1,-9,-18,-30
,69,22,-10,-15,-7,0,22,30
,-119,-48,-11,-19,8,9,-1,3
,80,24,-14,6,0,-7,-1,-1
,-46,-30,16,15,2,5,7,9
,-12,-47,-2,13,5,-7,-25,-25
,95,9,-27,-11,-6,-5,14,7
,26,73,35,8,-17,5,9,-4
,3,9,-42,-22,7,-8,-16,4
,-33,-53,-11,-2,-6,-6,-12,-11
,31,48,13,8,-21,7,16,21
,22,-35,-8,9,27,-2,1,-1
,22,68,6,-39,-1,1,-7,-9
,32,-37,6,34,-4,2,9,3
,53,14,-6,-15,-5,-2,-11,-3
,-70,30,-6,10,-8,5,-4,6
,-10,-73,-1,-21,0,0,9,5
,-21,12,-12,-1,25,3,-1,-2
,-14,20,40,26,-17,-2,-1,3
,-7,-11,-31,-45,-5,0,14,0
,92,42,-13,-22,-11,-3,2,3
,40,21,6,-7,4,1,-8,-20
,-37,-36,4,28,6,-2,11,16
,5,-3,0,9,-6,-1,-7,-5
,-29,16,18,-1,-2,2,-28,-33
,79,22,11,14,-5,-15,19,64
,-79,6,-20,-10,12,10,14,-3
,-17,-82,-12,-7,15,-4,-16,-4
,-39,40,17,-7,-13,2,-7,2
,-19,-28,-9,4,6,4,-10,-40
,5,40,-13,-24,1,-8,-5,24
,-33,-6,10,33,-9,-4,11,-1
,-74,-15,1,-30,8,10,-3,-12
,41,-37,2,54,-14,-11,-3,-10
,-1,-35,-44,-17,-2,-3,9,3
,58,64,15,-5,4,1,-7,4
,94,14,5,10,9,3,-1,6
,-39,13,5,-17,-8,-3,-2,-10
,68,11,-2,-4,12,5,-21,-34
,-63,-38,6,36,-10,-8,-5,-1
,98,54,14,-51,-6,-11,5,-10
,-94,11,-17,-24,-5,3,-8,-1
,-40,-43,14,4,9,-2,13,9
,4,24,4,-15,0,6,-6,-8
,32,-3,-15,23,-6,-5,6,1
,-88,-2,-3,11,1,-1,-5,-5
,-18,-14,3,-7,-14,-4,-3,-5
,23,13,6,14,7,4,7,-1
,-52,-41,-7,-3,-4,-4,-17,-3
,26,56,-21,-16,2,-3,5,20
,-22,5,8,-17,-7,4,-3,-1
,-104,1,5,27,-16,-9,-11,-12
,-38,-58,-34,5,19,6,32,-8
,16,13,2,-14,8,7,-18,-14
,83,47,12,-2,15,6,19,9
,-18,-5,8,16,7,-3,-11,-3
,-22,8,-13,-27,-14,-3,-8,4
,37,-16,14,16,-9,-6,9,4
,-8,11,4,2,7,1,-15,-8
,47,-33,-4,-35,-6,-2,-11,-15
,-22,39,-7,2,-5,0,-1,25
,35,1,33,44,5,4,25,29
,-32,-79,-18,-31,-7,-9,-6,-21
,19,-4,14,15,3,6,12,14
,-43,-9,-12,-8,11,0,-10,-13
,53,7,-13,-29,-8,1,-14,-7
,19,53,34,38,1,3,-6,-5
,-58,-47,-23,-18,-14,-13,2,9
,69,-8,2,11,9,0,4,12
,8,-16,19,42,-1,4,-11,-29
,-63,-10,-14,-22,-4,-2,47,50
,20,-23,-25,-42,-12,-4,4,-4
,48,64,5,12,8,2,-12,-11
,-66,-45,6,18,0,2,15,1
,5,15,10,-21,-4,-6,-18,-15
,48,1,-18,22,-2,1,3,7
,-9,8,21,5,-5,-2,-17,-13
,-28,-34,-24,-14,5,-1,6,10
,22,-1,-4,-4,0,-1,2,6
,12,37,4,-3,-4,-2,-7,0
,-47,0,24,7,-8,0,8,-11
,-17,-59,-6,1,-3,-1,-16,-4
,10,-36,-21,5,9,2,12,25
,-6,1,-6,-16,14,3,12,7
,24,-33,8,19,-12,-3,-2,-6
,-46,69,6,-21,-4,2,5,5
,15,16,5,-1,-20,-10,-10,-6
,-34,-8,21,1,19,8,10,1
,-125,-23,-11,62,26,-2,-14,-10
,61,-6,-16,-23,-18,-11,-2,4
,-14,31,15,23,-11,-4,-9,15
,78,-11,-10,0,-7,-1,-6,10
,-1,-20,-9,-38,-3,-6,10,8
,-22,-11,-6,-2,5,-4,-17,-22
,74,11,0,9,-1,1,-10,-24
,-16,19,24,28,-13,-1,9,-1
,8,-3,-20,-21,-3,-8,-24,-16
,4,20,-9,46,1,7,24,27
,12,-49,-12,21,7,-1,-21,-32
,24,32,-32,-55,6,-1,9,14
,44,13,22,9,-2,0,-8,-15
,-62,37,27,2,-2,2,-3,-7
,23,32,-6,-25,-10,-7,9,18
,-16,0,15,54,-3,3,-11,-24
,-83,2,-15,-41,9,4,11,3
,29,-32,0,5,2,-5,0,-3
,22,24,8,-34,-1,7,3,20
,-7,0,-2,1,1,-1,-2,-6
,-27,21,-8,-7,-16,-3,25,28
,-40,-65,4,3,5,-7,-19,-8
,-78,-9,1,-7,-12,0,1,-23
,62,16,3,-1,-3,1,-7,-8
,25,19,-12,11,11,-2,1,24
,64,21,-9,35,15,1,-16,-9
,36,14,4,-9,-8,-4,15,-4
,77,-4,33,3,-10,6,9,19
,-89,-7,-37,-5,12,4,5,-1
,-4,-24,-6,-25,-17,-4,-15,-25
,73,-30,-21,-2,21,-7,-7,18
,-36,65,36,-1,-4,-3,-2,-1
,-35,-102,-27,-15,-16,-5,-24,-48
,46,51,6,-12,0,4,39,25
,-69,-4,-1,-18,-3,1,-9,-20
,-48,7,18,41,-11,-5,1,-9
,43,-23,-22,8,35,7,8,22
,-2,16,-3,-18,-4,4,0,6
,37,43,29,23,5,4,-8,-3
,44,-48,-24,-71,-25,-12,10,-1
,-17,-58,0,8,-19,-1,12,26
,2,-7,-4,23,22,4,-16,-29
,-25,-2,5,-1,-5,2,-5,17
,-90,-36,8,49,15,-2,7,14
,-82,18,8,-36,-2,5,-9,-7
,46,-10,2,-17,5,4,12,15
,-16,-57,5,11,-17,-10,-8,-11
,-74,25,-41,-11,2,0,-5,-23
,34,-25,21,-26,-21,-6,-3,10
,33,60,-6,-16,1,5,25,41
,-13,55,5,-5,9,7,-14,-28
,-56,-3,5,9,13,0,2,16
,39,31,21,-7,6,-5,3,-6
,-37,11,12,28,-9,-9,-3,0
,72,-36,-10,-10,-11,-6,-17,2
,29,40,-1,-2,20,6,-12,-16
,-17,-59,-19,-3,-26,-6,18,10
,-42,34,8,-42,-18,-4,-3,-1
,45,-52,1,42,18,5,10,3
,-8,38,-16,-11,10,6,-3,10
,30,-44,-3,11,-6,-2,-19,-24
,1,34,-4,-14,10,-7,-14,-17
,-3,69,29,24,-14,-1,12,6
,3,-93,-45,4,-15,-15,-4,12
,76,86,25,-34,3,5,0,-9
,32,-19,-78,-9,-4,14,34,22
,-40,33,15,-13,12,0,-15,-16
,-5,-6,-5,-13,3,-2,-6,3
,42,-54,15,48,-10,0,9,-3
,-1,0,14,-27,-3,-9,-49,-36
,-12,-23,-29,4,3,0,17,9
,55,-85,1,-17,-5,-4,-28,-15
,20,68,13,18,4,8,39,53
,-51,51,40,11,-10,-5,-12,-20
,-57,-80,-28,17,31,0,6,-26
,57,-38,-11,-8,-22,-8,-11,9
,84,62,29,12,1,8,10,-37
,-61,-76,-12,4,12,-4,-4,2
,19,85,24,4,-9,5,-8,-7
,-17,-88,-44,-4,23,-8,-21,-27
,65,31,-15,-3,0,-3,14,43
,86,63,35,-2,-18,-3,-2,-1
,59,-11,32,8,-1,-1,-9,-14
,-95,-32,-33,-12,16,-6,7,4
,-42,-78,-2,35,-19,-9,-34,-17
,34,-25,-22,-49,-4,-1,6,-13
,-35,-31,-7,32,8,3,-8,27
,72,127,25,0,-14,5,11,10
,-77,-30,-9,-10,8,-3,-2,2
,-37,-49,8,35,-2,-10,-13,-7
,-101,10,-24,-33,-2,-2,-11,-19
,-18,-27,10,-1,-20,1,15,-10
,-19,63,4,-9,7,-1,-29,-22
,-45,-14,-19,17,12,9,39,26
,34,73,11,6,-6,3,4,11
,59,7,-2,5,4,-4,0,33
,-128,54,0,3,-6,-3,11,21
,27,-64,-6,-4,0,1,-22,-22
,-69,-22,-13,-56,-6,-1,19,-5
,-45,-13,14,21,6,8,2,-3
,127,-36,11,12,-18,-14,-8,-25
,27,78,10,11,-3,3,7,23
,-8,13,-11,-15,4,-8,2,-11
,-19,24,9,-20,1,16,12,0
,-41,66,24,52,10,0,-2,-3
,-88,-47,-18,-23,-1,-7,-13,-31
,39,33,3,5,-6,-3,4,-1
,-2,-29,-12,-37,-18,1,3,-7
,127,34,-10,31,23,3,-6,6
,-23,-12,13,-29,5,8,21,10
,-55,-2,-1,1,-19,-4,-15,20
,22,61,37,-25,1,-4,-2,4
,-77,-23,-26,-24,-6,0,8,-23
,-28,53,6,19,12,10,13,8
,37,-33,-10,-42,2,-5,-20,10
,127,12,13,114,9,-1,17,-1
,-25,0,-12,-68,-15,3,-5,-6
,95,2,-2,4,5,-6,-27,-17
,53,-51,-14,-20,-5,10,43,37
,-24,50,4,-6,-6,-16,-21,-7
,25,-6,5,-2,9,4,-4,10
,38,61,-1,-17,1,1,7,-10
,91,21,9,31,-21,-11,-31,-13
,68,-29,3,-19,-2,5,8,11
,-30,-23,-5,-5,0,-2,19,1
,-7,-67,-18,-3,-1,-3,8,19
,8,51,-11,1,-1,-4,-3,-5
,44,-12,3,16,9,4,-1,-6
,-16,55,16,-17,-14,-4,-12,15
,-18,-25,-2,8,-10,-9,-23,-34
,31,-25,1,-11,6,6,16,23
,-4,39,-6,5,6,11,21,-16
,-38,-16,15,9,-6,-3,-32,-37
,-63,11,1,-10,-7,5,44,69
,106,-3,-21,-33,11,-7,-20,-18
,25,42,-4,-10,-7,-3,-14,2
,-35,12,-2,-12,2,2,4,-13
,-86,6,20,41,6,3,-28,-35
,35,-22,11,33,13,16,59,24
,-79,-4,-1,-11,-13,-6,-2,18
,5,-35,-13,6,9,0,12,-1
,23,-14,4,-13,0,-2,-33,-23
,37,-35,-4,33,-20,-14,-9,12
,-86,-128,-12,-23,9,2,7,8
,127,63,4,-2,-5,-4,-20,-9
,109,-5,5,-12,-2,0,9,1
,-82,-12,-16,2,0,-4,1,-26
,30,33,4,17,-2,-2,-9,14
,114,9,26,19,3,2,22,20
,-50,15,15,33,7,-3,-20,8
,-128,-49,-37,-38,-12,-12,-32,-62
,-8,-66,-17,-20,-4,-11,-20,-14
,-3,38,-6,-26,-10,7,10,-12
,87,58,-9,27,3,1,20,20
,-25,-18,20,-20,13,18,5,-33
,22,79,0,-45,-5,1,6,20
,-116,-95,-19,46,4,1,-4,12
,9,-57,-31,-9,-20,-6,28,38
,18,4,5,-50,8,7,-19,-7
,81,45,4,56,-4,-7,-21,-15
,-9,-27,-10,-20,-7,-6,17,34
,32,4,7,-32,-10,-6,-13,-7
,-43,-7,-13,23,15,4,6,-12
,-40,107,20,-1,-9,9,10,13
,1,-61,0,-24,-2,-1,-3,-13
,-31,-111,-57,-37,-4,-18,-3,12
,127,100,34,58,8,0,0,-5
,35,22,11,-35,-2,-4,-31,-10
,127,-5,2,31,2,-1,47,67
,62,21,13,-10,-5,5,-20,-34
,10,69,-6,-21,-7,-14,-2,51
,51,22,1,38,15,9,1,-42
,-128,-67,6,22,0,-6,-37,-19
,84,11,-2,-15,-9,-6,27,4
,68,76,-1,-17,-16,-2,-9,38
,-104,-75,-12,18,20,2,-5,-18
,35,50,3,-44,-3,-4,-12,-37
,2,92,37,67,9,7,7,-9
,14,-13,-21,-3,-9,-3,0,7
,127,76,5,-23,18,9,22,28
,-81,-42,5,-22,-31,-4,-7,-25
