,71,26,40,15,7,16,-102,-4
,-32,-32,-50,-22,3,55,20,-37
,24,-2,31,22,-6,-51,7,-32
,42,4,-38,-18,0,-41,22,-100
,-50,-9,-21,-4,9,88,-16,10
,-23,32,55,14,-9,-30,-45,-82
,-25,2,45,2,13,55,65,35
,8,-21,-16,-16,-4,19,18,91
,-49,-33,-15,-8,-15,-55,60,-3
,-11,4,22,5,-9,1,-45,6
,89,18,1,18,17,80,29,2
,21,-6,-45,-15,1,6,-17,32
,4,12,-18,-22,-15,-27,-85,-74
,-2,-18,41,12,-1,-5,86,48
,55,15,1,4,15,-29,-29,-128
,-8,5,17,17,2,36,-79,9
,48,-1,-93,-20,-2,17,-3,63
,-53,-9,-48,-13,-19,-38,-87,24
,-23,34,104,22,14,-4,78,19
,8,-17,-53,-9,-5,-1,-37,-25
,-4,-4,1,0,-12,-18,-56,-19
,6,18,59,7,7,3,52,64
,3,12,-37,3,6,-4,-86,-25
,14,10,31,-7,-4,13,-48,-39
,9,-8,-128,-22,-2,-43,22,25
,29,4,-1,-3,4,65,39,1
,-22,7,23,12,6,-3,12,4
,14,2,48,18,-3,36,51,-67
,21,-13,17,1,-15,-97,-41,32
,46,1,-106,-24,18,51,14,5
,29,-4,-41,-13,6,-40,-34,-41
,-16,29,-27,4,9,13,86,-1
,17,-1,89,30,-4,-60,-84,7
,-44,-21,-99,-45,-6,35,78,5
,-15,-22,47,1,-11,47,5,-12
,-2,18,49,7,-5,-54,-106,-9
,-72,-7,-16,-9,-19,-8,63,-46
,1,-10,15,23,14,-56,30,5
,49,19,-18,-6,-1,7,-79,97
,68,-11,-49,-12,-11,9,106,25
,-11,5,-28,-17,3,25,17,-28
,-24,-43,46,4,-25,-45,52,114
,-4,30,-13,-6,-3,9,-82,-32
,-43,-22,14,14,16,-46,-99,-32
,-17,9,102,0,2,7,28,36
,-40,-11,-109,-28,-13,5,-53,-66
,-1,-10,6,-2,3,-22,60,-7
,34,6,31,17,6,64,-80,-51
,-6,-3,-36,-7,9,1,88,2
,21,7,63,8,-11,-12,-23,-44
,-57,9,54,26,2,21,45,11
,-2,-5,-53,-7,10,6,40,79
,62,20,7,-8,7,83,-59,-27
,10,6,6,-7,2,-24,49,54
,33,-1,40,0,-11,1,-63,-39
,-18,-7,-14,-2,-3,-35,17,25
,-42,-24,-47,2,-10,6,-28,20
,19,-10,44,2,12,5,3,21
,29,9,28,-3,-1,26,-80,57
,-12,21,59,10,-6,-47,15,-64
,-30,-8,-17,-17,-8,-34,50,87
,41,18,78,17,8,57,-102,-59
,37,1,-18,6,2,-51,95,101
,22,-15,19,14,4,38,-7,1
,-20,8,14,-8,-1,-35,-5,-40
,-39,4,3,-8,-4,-13,-37,-70
,35,4,36,6,8,7,123,-2
,21,-7,-22,-10,-17,-94,-42,68
,-10,-10,-51,-4,-14,50,43,-124
,-9,0,-3,5,16,26,-68,19
,-28,-37,-61,-18,-14,-18,-37,31
,8,22,16,2,-8,-8,11,-17
,19,-15,-32,-9,-6,-19,-13,-19
,51,17,76,22,21,-2,-77,15
,-22,18,-4,7,-1,-41,-10,-80
,27,-7,62,4,2,14,-25,31
,18,-12,-54,-26,-18,18,-40,-4
,-1,-11,24,-10,-12,-53,-3,4
,22,-7,27,18,0,-12,-8,29
,18,14,35,0,1,-35,-50,-11
,0,-13,-63,-9,6,-10,-17,5
,-70,-10,-1,-33,-21,9,-39,-42
,-32,-1,78,4,-10,-80,-27,-15
,-70,1,-31,4,13,75,64,18
,-76,-16,51,17,-5,-8,33,32
,4,-7,-50,-13,2,-18,-49,-61
,-6,19,-79,-11,7,35,-39,15
,-17,-9,21,7,-18,-31,58,-23
,-62,-1,94,15,8,60,-68,-38
,-9,1,-61,10,27,45,127,-45
,30,-7,-10,-16,-6,20,10,23
,11,1,64,10,-9,-10,-37,36
,-23,7,35,11,8,30,90,-13
,-87,-50,-29,13,6,-1,-35,59
,33,-4,-101,-45,-6,-26,-52,-6
,57,32,58,0,-7,-11,45,64
,-38,-2,-37,-4,-2,18,-54,-62
,-9,-11,45,-1,-13,14,46,60
,-4,-4,37,10,21,0,-105,-38
,-46,-18,1,9,-1,-28,-24,13
,8,15,6,10,-4,3,-40,-3
,30,-10,-40,4,18,-33,65,21
,-20,17,127,28,-1,-9,-24,1
,26,5,-27,-15,9,-5,-128,-36
,-46,-2,-20,0,2,12,54,79
,-14,-22,-38,-15,-12,6,54,16
,-31,0,105,21,3,16,-86,-16
,15,16,28,4,-2,-12,-64,-23
,12,22,15,-12,1,-23,82,30
,-13,6,-18,-6,-17,-26,-64,7
,34,10,-13,2,-2,-12,-3,-7
,-3,-13,-52,-22,-15,33,77,-26
,-28,10,52,-4,-10,-35,-121,29
,-7,0,-22,-11,11,-11,-29,-5
,34,-2,66,16,4,37,86,-16
,-19,1,32,-1,0,-7,47,2
,-24,-11,-82,-24,-7,-15,-43,-22
,-4,8,28,8,5,23,70,60
,18,-9,-14,-4,1,0,-125,-19
,7,-15,-14,8,5,15,85,32
,14,13,60,11,0,17,60,-39
,10,-5,-29,6,5,-12,-121,-15
,14,0,-49,-10,-3,0,13,-14
,-22,30,35,16,0,-8,-66,9
,-4,-4,-71,-4,6,12,-2,69
,29,2,19,5,8,50,79,-17
,-24,-10,-27,-20,-8,-34,-52,-15
,-58,-6,59,8,-8,-8,-48,-17
,-46,-26,-35,-16,-12,-8,80,70
,-33,26,52,1,-3,-36,7,9
,18,29,82,25,6,-11,14,-10
,6,-49,-75,-10,2,-7,-84,3
,-2,11,-30,-16,-11,-2,-52,32
,8,1,33,2,-7,-18,42,-6
,-33,-17,-4,-8,-2,8,-21,0
,14,-1,70,5,-3,-7,-68,-43
,51,18,-63,-10,-13,-8,-20,-97
,21,14,18,20,13,-45,-81,-36
,23,-21,-56,-6,6,58,-24,-18
,19,5,14,-14,4,30,80,32
,6,3,-48,-17,-8,-40,-72,-54
,-42,-40,16,6,-6,-38,-15,13
,-52,-7,-5,3,9,33,-94,-38
,-17,3,-12,-8,-7,-9,127,83
,-8,1,46,15,-1,-11,-39,-75
,29,16,-93,-9,-10,-31,-91,10
,6,-7,52,8,0,-3,-24,27
,-15,-27,25,-5,9,10,-84,-43
,12,7,-46,-21,-10,3,28,29
,-33,1,11,5,-3,-27,-34,46
,-41,-1,65,18,-5,-2,44,-3
,69,8,-24,2,12,34,-32,-35
,2,0,-34,-11,-2,18,16,51
,-23,-11,-4,3,4,-13,-4,-11
,19,48,-10,1,-5,-16,9,-40
,-7,-37,3,-3,-10,8,-7,-48
,-12,-9,-11,-3,5,5,-3,43
,-9,7,74,8,10,-3,28,-28
,-28,-25,-98,-15,-10,-12,-44,24
,-9,33,27,7,4,-6,29,55
,10,-9,31,2,-2,5,18,44
,-22,-2,-18,0,-1,7,-24,-17
,-8,-26,72,8,1,-23,18,-19
,-4,21,3,2,-5,41,-44,-5
,10,-5,-12,6,11,11,-47,9
,-9,11,35,-9,-11,-47,2,-34
,-19,-17,2,6,11,71,-38,17
,18,14,-24,-2,-12,-20,-3,66
,60,24,18,17,5,6,30,2
,32,5,10,-2,0,-10,-33,-58
,-18,17,27,11,5,-46,25,5
,37,-15,-42,4,7,60,56,105
,5,4,11,-15,-3,12,24,1
,-6,-21,14,-2,-4,-31,-19,2
,-27,-29,5,-4,4,-11,-5,7
,-18,9,-17,-2,-1,23,63,26
,-38,-56,15,8,-3,-12,-77,-24
,-42,20,-20,-14,-12,-70,75,39
,-32,-5,7,7,3,47,-12,-5
,4,-3,5,14,-3,-30,-90,28
,-44,5,-9,-23,-2,6,55,-11
,3,13,-6,-2,-5,-15,-63,-102
,-8,-8,40,1,-1,-16,-18,2
,-19,1,-23,-9,2,15,69,0
,-48,16,35,5,-1,-43,-108,-86
,-40,-37,-47,-8,8,31,117,-16
,-33,22,-18,-5,-11,-17,-59,64
,44,-10,-3,-12,2,3,-124,-122
,-19,8,30,5,14,52,109,90
,-3,23,94,11,0,15,-78,27
,22,-10,-75,-8,-9,-23,-62,10
,-55,-28,-6,-1,0,-5,84,-2
,32,9,-14,-11,-5,-22,-95,-61
,46,-17,10,10,-1,16,12,-21
,38,10,-42,-2,2,-46,-43,1
,-75,-35,-37,-34,-24,33,60,-8
,9,13,-6,7,-10,-13,12,27
,-9,-6,41,10,9,-2,-51,29
,-6,-43,-31,-2,-2,3,103,10
,1,28,-25,14,3,-45,-8,34
,0,5,63,0,-2,4,-13,-77
,-53,-16,-88,-17,-10,24,-14,-17
,25,0,42,5,2,-4,13,6
,-7,32,23,8,7,-8,-73,-42
,31,-15,11,-7,-7,-12,50,13
,33,3,-57,-11,-1,6,-49,13
,6,5,-2,-13,-3,-2,23,-4
,21,3,67,33,12,38,26,8
,13,-5,-86,-14,-7,11,-68,43
,25,-1,-11,6,5,-27,113,1
,-21,5,20,-6,-5,35,63,-4
,27,-1,-64,-7,2,-8,-3,-54
,-19,12,45,-9,-20,-46,-11,5
,6,3,3,4,6,9,-11,27
,-3,23,-5,3,4,17,-20,-7
,-8,-15,-3,-4,4,4,0,-3
,0,-7,-4,8,-2,-18,-57,11
,-30,-2,20,-10,-3,3,7,-33
,-31,-20,-47,2,1,17,-28,0
,77,22,85,16,-1,-20,-44,-7
,15,-1,-38,-31,3,46,91,5
,8,10,15,4,-4,-10,65,9
,-52,7,-20,2,1,-4,48,3
,-50,2,35,1,3,20,22,-2
,12,-11,-47,-10,2,16,3,17
,0,-9,25,1,-6,-5,-74,-2
,-1,23,17,24,2,-16,-60,-48
,-40,-42,-49,-26,-2,1,-29,28
,-12,1,72,9,-3,-4,-42,-11
,16,-11,-104,-22,-11,-36,-19,-14
,-40,-11,12,3,-7,44,-64,-57
,12,6,41,18,21,-2,98,45
,34,5,-6,1,-3,-11,-5,-40
,-11,6,63,2,15,42,-73,-2
,16,-5,-47,-19,-10,-22,126,33
,24,-26,-16,-6,-7,27,4,-19
,91,47,-31,4,-7,-32,-25,-29
,-4,-3,41,13,3,7,-79,-50
,37,-10,2,-24,-5,-25,-7,46
,-29,4,-8,12,3,-4,-3,24
,11,-25,12,4,6,-1,23,26
,-8,19,-25,6,1,5,-48,37
,-24,12,1,-6,-11,-37,-88,5
,12,15,-54,-13,-4,10,120,-12
,1,-16,-53,-1,8,-3,-41,-23
,13,16,-30,0,-3,-8,13,-2
,-28,-8,20,5,2,5,-104,-63
,5,11,-6,2,-4,-10,39,74
,-18,-18,50,0,-7,-1,5,9
,35,-12,-55,-16,0,-8,2,-16
,14,14,-22,11,19,0,-8,47
,3,-14,17,-21,-17,-10,6,-8
,22,13,65,26,14,48,-12,29
,-3,-2,15,-4,-7,0,-120,-41
,6,-1,-8,-5,-6,31,55,57
,6,11,49,11,-2,5,17,22
,-24,6,-47,-17,3,2,-12,18
,13,-3,81,16,-3,-3,7,-49
,1,-9,-115,-19,-11,-23,-34,-43
,-17,3,20,-17,-3,-18,-108,50
,16,23,56,13,1,-1,65,-19
,15,-16,5,-8,-6,2,-4,18
,-37,-9,44,8,1,17,-41,-46
,-22,-7,24,21,3,-8,46,2
,-7,16,14,3,-13,3,-10,-19
,-22,-27,-3,0,21,-2,27,26
,23,10,31,0,-4,-22,-10,-88
,10,-2,-1,11,1,24,6,38
,11,11,58,2,12,41,-45,-45
,20,2,-67,-8,-19,-8,89,16
,-9,-13,52,-11,-11,-22,-55,25
,-21,-11,-35,-4,2,21,15,93
,37,-3,42,6,9,-15,-48,-35
,-31,2,-11,0,-2,-11,-66,10
,-12,2,-15,5,-3,18,-64,23
,-50,-9,21,11,8,-1,7,54
,1,-25,5,5,-1,9,68,20
,-4,39,-34,-27,-9,-14,-49,19
,-11,-49,-48,-3,3,-9,-44,22
,63,11,37,2,1,-7,43,3
,10,20,0,1,-13,10,-117,-56
,-19,10,1,15,7,-17,-24,-38
,48,6,16,-4,6,-13,-37,-10
,6,35,33,6,1,32,-1,-15
,-60,4,39,5,6,-43,127,35
,-40,1,98,20,12,55,-28,-49
,6,11,-16,-18,-8,-5,-50,-3
,2,-4,64,16,4,12,-16,19
,-5,-17,-15,-4,-4,1,127,-37
,-9,8,6,-1,1,-21,8,2
,-13,26,-43,-15,-7,-17,-22,16
,18,1,40,25,14,0,3,7
,28,-21,-55,-5,-3,27,8,37
,4,4,-57,-12,3,-4,5,-128
,40,43,83,24,3,-9,-65,-4
,24,-6,-72,-19,-14,-1,25,-5
,-12,8,8,-14,15,16,-9,39
,-13,-20,-4,5,-4,-10,-8,24
,-19,-25,13,4,5,28,-56,-6
,-6,6,-20,1,-14,-34,-27,22
,-9,-10,27,-2,-7,-9,73,-6
,29,20,22,5,4,0,27,36
,-24,-3,-50,-26,1,12,11,-35
,-24,-21,49,8,-8,-13,19,-11
,-2,22,4,-16,-9,15,72,16
,5,3,-6,-9,-1,1,16,26
,2,-4,16,13,-3,-16,5,75
,-5,10,-19,-3,-8,-5,59,0
,-56,-44,-17,-7,6,12,50,-2
,-13,26,63,9,-5,-14,23,49
,28,-14,15,-18,-13,-7,70,16
,-61,-2,10,6,8,-7,-76,9
,28,40,39,13,1,4,50,17
,1,-22,40,-1,1,-8,61,-6
,-20,-7,-84,-8,-6,-5,-97,0
,78,11,25,-6,-6,-5,-41,13
,-23,15,13,12,11,12,18,-14
,-18,4,32,-8,-3,-12,-31,-47
,81,23,-11,8,4,11,29,17
,45,-6,-18,2,0,-9,-17,-1
,-6,-19,-90,-23,-7,-31,-29,-49
,-42,1,5,9,1,32,55,3
,-5,13,46,11,-3,-25,-29,-20
,-7,18,12,7,9,11,17,-9
,21,11,-4,-7,12,12,-48,3
,27,-18,-40,-5,-6,-22,118,120
,-16,8,58,10,-4,3,-18,-56
,22,-12,-1,11,9,7,-41,23
,-15,-11,-16,-13,-6,-20,-26,-8
,29,12,27,10,4,17,-7,5
,-44,7,-34,1,-12,12,5,-43
,10,-17,-3,-13,0,7,-1,-11
,-31,11,30,14,-4,-23,-79,3
,8,-3,-13,-28,-7,-27,37,40
,27,-1,3,8,11,36,15,-26
,-48,15,53,14,-2,-9,-13,-33
,56,-8,13,-18,-7,-13,-25,100
,18,11,9,5,0,1,15,-45
,-9,-17,32,9,3,6,-42,-11
,1,7,1,-3,-8,8,38,19
,31,18,-9,10,18,-7,-6,-28
,-22,-32,-43,-10,-5,12,46,-6
,-61,-20,-6,-16,-6,-9,-39,53
,64,38,4,14,-1,8,58,-73
,-12,-2,-7,9,-4,6,-13,-1
,-10,-10,-9,0,2,-6,-81,-23
,40,11,-26,-6,1,7,62,-1
,-92,-23,-41,-2,-10,-9,35,64
,57,4,-30,-19,-15,-17,5,6
,-3,5,50,12,2,-21,-36,0
,1,8,-9,-13,-6,40,-44,-5
,-29,-19,23,5,0,-7,-12,-26
,-12,-1,-57,0,-1,-4,-42,-27
,-1,-6,-13,0,-1,-23,4,36
,-29,-23,15,1,-5,10,14,4
,-4,8,-16,-8,-6,-7,-20,46
,28,28,24,13,8,13,40,-9
,-42,-25,-14,-24,-7,-5,-57,-13
,-10,-26,18,10,-6,-21,53,38
,8,23,15,6,12,38,-90,-26
,40,4,7,4,-6,-30,110,13
,41,37,41,5,-1,13,-2,-28
,6,-2,-38,-5,-5,-8,-19,39
,18,-17,-20,-18,4,2,2,-25
,44,6,47,13,-1,-14,-14,-18
,9,-2,-47,-6,-7,2,-60,-14
,-6,10,32,-13,-3,-3,15,0
,13,-15,-1,17,0,-5,-30,-13
,-1,-10,-5,-2,-1,13,24,10
,26,-3,11,7,-1,12,24,14
,-16,-22,-42,-7,-3,-6,-32,20
,13,-9,-3,-2,-2,-6,10,-9
,-20,29,-25,-6,0,0,26,3
,-5,1,32,-1,3,28,-67,-88
,-35,8,62,5,-2,3,127,7
,9,-11,-46,-14,-7,-2,-40,66
,7,-24,17,8,4,-6,-10,-43
,56,-1,-12,5,1,-11,-21,0
,-7,15,31,1,-6,-11,-62,-8
,-39,-3,5,6,-6,-22,-32,11
,21,-29,-102,-21,-8,9,-18,-37
,1,1,-25,2,8,-3,-7,2
,0,-21,-3,-16,-3,7,9,-16
,-17,-24,31,-5,-3,-11,13,91
,20,32,-42,1,-1,9,-19,-28
,-23,-3,-12,3,-4,-8,39,-6
,37,-7,-1,6,6,22,11,-13
,-28,12,14,-2,-2,-8,9,-9
,-9,-9,-47,-1,7,-7,-22,31
,5,-17,17,16,5,1,44,-4
,-8,26,-24,-21,-2,-4,-2,22
,19,-3,26,-1,-8,-15,-20,-11
,-19,-6,50,2,-7,-5,8,-77
,3,2,-4,6,8,18,-6,-11
,-32,-4,-4,-3,-7,-14,1,49
,2,-16,-51,-14,-1,-20,-9,14
,39,3,54,8,2,35,-39,22
,5,11,-25,1,5,-2,-44,-70
,-20,-6,-23,3,-2,-4,85,24
,-17,0,-64,-11,1,19,22,25
,-1,-8,31,20,11,16,23,3
,-20,-5,22,-21,-27,-59,-62,1
,-66,7,-9,5,9,16,35,-14
,15,-9,32,-1,2,-7,-55,6
,26,-6,-39,-4,-3,-9,1,2
,8,11,-36,13,8,9,16,19
,7,-13,-16,-11,-7,-8,-38,72
,27,26,-31,-15,-9,-10,66,-18
,11,-4,1,9,9,6,1,13
,-35,-3,15,-14,-5,3,55,-1
,-1,-13,2,5,-3,-16,20,-45
,4,-1,-33,-8,1,3,-45,-1
,10,3,-29,-18,-13,-31,-3,-91
,-24,-3,-14,0,1,-4,-28,36
,-27,-16,22,1,5,26,-3,-30
,4,-5,37,-5,-10,-41,22,-47
,-15,-2,24,11,15,79,15,29
,3,24,-6,3,-3,-31,10,22
,17,1,47,2,-3,-23,18,19
,22,-1,-41,-6,0,4,-28,2
,8,12,-4,1,-5,-3,1,-10
,-92,0,22,-1,-5,-9,-4,-7
,44,4,3,2,-5,-24,-97,-48
,67,-12,-5,-4,-10,-3,122,30
,-28,-9,-58,-17,2,-23,-22,-7
,-38,-22,86,19,4,14,11,49
,-16,44,-71,-16,-5,-8,-34,-30
,-41,-36,36,7,-4,-2,-51,-3
,-20,6,66,32,4,0,-7,57
,4,-18,-32,-6,3,1,-26,-31
,-8,-6,-22,-24,-10,-9,17,11
,21,13,12,-4,-6,-11,-43,-7
,14,23,11,7,0,-6,3,5
,-38,3,-47,-4,1,-1,-8,16
,58,-1,48,18,1,6,34,-29
,-11,-15,-10,-3,-1,-8,55,-6
,-7,-6,-24,-12,-9,-32,-20,-45
,-26,6,50,6,-1,29,23,-21
,1,-17,-18,-7,-8,-36,-31,-21
,9,16,19,10,19,40,25,-18
,-24,6,9,-15,-8,-4,-42,62
,22,2,-25,-3,-4,-4,7,-16
,-31,-6,28,2,0,10,14,23
,61,-25,-59,-4,-7,-13,-13,-14
,-38,42,-7,5,7,-7,13,6
,34,15,4,12,4,3,-81,20
,3,-5,-5,-20,-8,6,99,-17
,-45,-18,0,-1,-6,-11,-16,-5
,17,2,19,0,-5,5,19,92
,-17,6,17,3,1,5,-19,26
,-5,2,-15,4,4,-10,-12,-13
,-22,1,45,12,-2,11,38,-4
,12,-25,-51,-12,-3,-16,-72,-19
,-18,34,49,3,-3,-8,-49,24
,-25,-9,-30,7,3,-7,56,-47
,41,-14,-23,-15,2,16,16,-6
,67,1,14,1,-4,-13,-86,16
,36,13,20,1,-4,4,91,-38
,-15,-22,-5,7,4,29,49,-44
,-23,13,-2,2,-7,-15,-27,24
,29,22,-17,-12,0,25,-7,8
,8,-23,-1,-8,-1,-5,31,34
,-38,3,-10,0,12,-4,-82,6
,22,-31,-15,-12,-4,6,96,19
,44,13,77,12,0,12,2,72
,31,1,4,8,-6,-14,-100,-30
,-12,12,9,-1,3,16,24,-38
,-10,-35,-84,-20,-7,-33,-15,-8
,19,2,-11,15,-3,-13,-20,-34
,7,-3,-25,-3,5,-6,-101,-10
,-14,-36,-29,-11,-6,4,96,-29
,33,-2,-10,13,-3,-32,-15,28
,-2,19,29,-1,-2,13,-10,-52
,-9,24,17,-3,-1,3,46,20
,14,-26,-30,-7,-3,-10,-54,21
,-9,21,48,19,7,-17,-39,-4
,-40,-25,-29,-12,-6,-25,114,45
,32,4,-11,5,-3,10,-4,33
,-11,3,2,-21,-10,-15,-81,-69
,24,11,36,20,9,47,82,25
,22,-2,-55,-16,-4,9,17,16
,-1,-19,47,6,6,6,-30,18
,11,2,-30,-4,-5,8,29,-19
,-15,3,-10,-3,-12,-26,-29,-20
,-4,-20,72,20,7,-12,-17,14
,18,2,-21,-8,3,2,18,1
,9,6,-34,2,0,10,-109,13
,26,-8,53,12,-3,-11,-32,-41
,-29,-1,-47,-23,-4,-1,19,2
,-8,0,22,1,-5,-19,-81,-2
,38,4,47,9,1,-11,77,-7
,18,-2,-102,-18,-4,-3,-74,-13
,-27,16,59,17,7,19,112,21
,41,-35,-41,-22,-6,1,-30,3
,-45,-5,-1,1,-6,-5,-56,3
,5,-21,4,4,5,-12,-3,74
,84,25,-6,6,2,9,53,-8
,-13,28,88,6,0,-5,-23,-30
,-6,-14,-119,-23,-19,-8,-69,13
,-33,-3,30,4,15,-11,11,-16
,-32,-26,-12,-6,-2,10,-23,58
,29,22,51,16,-4,-15,-2,-33
,-21,-11,-27,1,1,-9,16,11
,-68,-36,-16,-9,1,-2,-28,-61
,39,42,-10,-7,-3,-28,-48,-2
,-23,-6,-17,8,5,25,36,27
,-30,-27,20,-16,-12,-9,68,54
,13,7,18,13,5,3,45,16
,-33,-14,39,13,4,8,39,-3
,-50,-27,-13,-16,-7,-22,-28,-1
,-2,-12,12,-3,3,24,45,-10
,7,15,27,-5,-6,7,27,34
,-41,-12,-3,-8,-8,-20,-112,-7
,23,16,23,16,9,27,17,26
,0,-15,-31,7,0,-12,-41,-71
,15,20,-16,-19,-10,-27,111,-1
,-17,16,33,1,-10,19,-110,-74
,-19,-5,-26,2,6,-5,127,31
,-28,-8,-79,-18,4,3,-12,-52
,-23,31,58,20,0,10,-8,-15
,-19,-39,-76,-16,-8,-15,-72,26
,-13,1,-6,-4,-6,-15,-3,-36
,9,5,34,8,-3,-7,-75,18
,-33,-17,-16,10,6,3,85,16
,-13,-17,13,-27,-14,-32,-5,-15
,-5,8,31,4,3,7,-47,-43
,41,1,76,15,10,0,1,49
,7,28,-3,-3,-11,-29,-103,18
,35,-7,14,12,10,41,79,-17
,-23,-2,-36,-12,-9,-30,-5,33
,-62,0,54,27,9,22,11,6
,15,-23,14,-26,-3,9,82,6
,50,26,14,1,2,10,-22,1
,10,-5,-6,-3,-3,6,58,18
,-60,-49,0,-4,-2,-12,-66,7
,14,-7,-9,5,5,8,9,-2
,0,6,-22,1,10,21,9,39
,20,25,6,5,-1,8,10,-13
,3,31,-12,-5,-9,-47,-24,-34
,47,7,-35,-14,1,14,34,-46
,-19,-15,57,13,-2,-5,18,10
,1,-39,-54,8,1,-9,-34,-60
,31,11,15,-31,-8,-1,28,-33
,-40,8,11,-4,-6,-13,-102,8
,0,7,25,13,0,3,-27,-2
,15,3,-12,3,0,-15,-26,0
,-24,-18,-11,-7,1,23,53,77
,39,-9,-14,7,-6,3,13,19
,11,-20,2,-10,-7,-22,-51,-16
,-45,-7,-30,-3,-4,-8,-95,12
,-30,34,70,19,5,10,15,-1
,-27,-30,-71,-17,-5,-20,-77,-1
,32,11,-18,-14,-5,34,81,-27
,22,1,11,-5,-3,-3,-42,-20
,19,-7,-20,0,4,17,57,56
,-22,-10,58,22,5,2,-106,-15
,-6,34,-31,9,3,-21,62,3
,14,-12,-11,-21,-4,10,63,-9
,-6,-12,-41,-13,-3,6,-82,31
,22,5,71,13,3,7,127,12
,-36,-27,-34,-8,-6,-26,-63,6
,55,33,67,-8,1,30,83,8
,-32,-26,-7,-12,-6,-23,-29,-99
,3,23,-81,-11,-5,2,-48,38
,11,-14,22,6,0,7,34,6
,-43,-3,27,11,-1,-26,-57,1
,22,10,18,12,5,13,91,11
,17,-19,-10,-11,-4,11,-59,-24
,23,10,-24,-6,3,8,12,-5
,-30,-32,3,7,-2,-11,0,21
,44,31,-3,-13,-3,6,16,23
,-7,0,5,12,6,7,3,-19
,-21,-2,2,-1,-3,-12,-12,35
,-5,-26,-59,-15,1,4,-26,-20
,30,2,45,17,6,-7,76,24
,0,8,32,9,-2,10,35,14
,19,-8,-9,-1,-4,-16,-87,-27
,39,3,17,-9,7,14,3,-57
,19,28,-3,9,0,-9,-84,-11
,14,-32,-57,-9,-8,-21,52,17
,-63,2,-15,-28,-5,25,8,-34
,-32,35,103,29,2,-2,-32,4
,-25,-10,-31,-9,-9,8,-71,-36
,-30,8,4,15,17,7,70,22
,2,-6,-20,4,0,-20,41,-9
,-3,4,-34,-13,2,26,-7,-6
,-30,7,39,8,-7,-2,-6,-14
,-18,5,39,-4,-10,-44,29,-18
,25,-3,-1,9,9,25,28,75
,23,28,-13,-9,5,24,32,18
,64,-1,24,9,-5,-9,37,-18
,-14,-11,57,11,5,-4,-32,0
,-23,-15,-34,3,0,-9,10,51
,13,27,41,13,-8,-32,-79,-63
,21,1,-14,-14,5,44,18,47
,20,-9,-18,-15,-3,15,-15,-59
,-48,-5,38,-12,-5,-1,-42,36
,-48,-5,-14,-2,-7,-21,12,9
,-6,-23,-23,9,4,2,20,-23
,6,33,28,4,4,9,-24,21
,-42,-6,-61,1,9,9,-34,-51
,45,-14,-1,9,-3,3,32,3
,-5,-16,-22,-11,7,-2,113,64
,-41,-4,-31,-18,-13,2,-42,-2
,7,9,29,12,2,12,-33,4
,-12,4,-35,-5,0,2,2,1
,-11,-23,-40,0,2,-10,-26,11
,27,-3,28,7,-7,-25,1,-17
,15,5,4,-7,1,-11,23,-18
,-5,-2,-5,5,-1,-10,-35,47
,65,40,1,-13,2,24,75,-41
,-5,-11,12,-5,-9,-18,-32,12
,-57,-15,-7,1,-12,-21,9,8
,-12,-33,-78,3,9,12,-15,-43
,-9,27,-21,-12,-16,-39,-93,-62
,-21,0,2,-3,13,25,-26,-18
,77,10,55,27,13,4,5,21
,-30,0,47,-15,-6,1,41,5
,-34,-23,-2,-18,-11,-14,-88,-9
,21,2,7,-2,-7,3,50,0
,27,-1,31,6,-3,3,42,-4
,-30,-7,-56,11,3,0,-36,15
,-28,2,15,5,7,-2,49,19
,-9,21,-1,1,-11,-23,5,-8
,19,-13,-62,-18,1,6,17,-42
,22,18,23,10,0,5,8,15
,-26,5,-17,-11,-5,4,15,20
,-12,-10,9,25,6,-7,-42,-16
,78,14,40,-2,0,-13,46,54
,-33,-15,-8,-16,-12,-8,52,-9
,1,-21,-19,-2,-4,-23,-41,-50
,17,9,-11,-3,2,51,58,23
,7,19,-5,10,1,-1,-62,-34
,13,-9,38,7,1,4,14,8
,4,-8,0,-3,-12,-36,-1,24
,-51,11,6,-17,2,9,-26,8
,-58,-15,-39,-8,-8,-24,19,-33
,-10,1,-56,-9,1,15,-77,56
,-29,-7,19,20,-3,4,40,-35
,16,-3,69,3,10,7,1,-19
,15,-5,6,-4,1,21,-15,38
,1,-11,-38,-18,-5,-36,30,4
,-43,17,1,7,-5,0,8,16
,19,-13,-18,-8,-10,-2,-50,15
,3,5,37,-6,6,-12,2,-65
,18,1,50,19,-1,2,2,-11
,28,-5,11,-7,5,13,-15,5
,-85,-16,-44,6,-8,-14,46,47
,35,-6,-7,-21,-6,-6,-101,-21
,-5,-7,39,2,6,25,48,-5
,18,-10,66,13,2,-4,-34,-20
,2,-5,-64,-12,-4,9,15,53
,-17,20,8,15,4,-4,-88,-40
,54,17,35,-3,0,16,71,3
,-20,-23,-40,-13,-2,-19,29,11
,24,21,59,6,3,8,-60,8
,-28,-25,-90,-21,-14,-4,19,3
,-12,13,23,11,-5,-17,-35,-15
,-22,12,-11,8,12,31,9,80
,-25,-35,-68,-23,-1,-13,10,-62
,-29,8,8,-8,-11,-9,19,12
,4,31,41,3,-2,-18,-55,-13
,4,-4,-23,-10,-4,13,22,20
,17,-8,-44,5,-1,-2,-30,5
,-1,1,69,11,-1,-28,-50,-1
,-14,-22,-38,2,14,48,90,22
,61,9,53,8,-3,5,-56,-19
,0,10,-32,-3,1,10,8,-5
,41,-17,23,6,-7,0,-17,-37
,14,1,-12,-3,-16,-18,-34,72
,-1,16,-32,-10,7,-3,-35,-18
,-20,-29,-60,-1,5,-14,0,15
,21,16,10,6,1,13,47,14
,-36,-6,75,2,-1,-2,-39,6
,-21,4,-40,-8,-6,-4,15,-17
,46,6,-12,-16,-12,-18,37,18
,-34,9,-13,9,3,11,57,55
,22,8,11,-6,1,-12,3,-36
,-19,-31,-49,9,1,0,-4,-54
,49,-12,21,-2,3,6,-60,-1
,17,19,-12,-8,-9,-26,33,-14
,3,2,6,2,-1,-3,-4,-26
,0,-21,-12,2,5,3,-39,43
,-19,23,6,-6,-3,-25,22,-38
,1,4,15,4,6,35,108,34
,-46,-7,-33,-8,-2,-6,-34,-31
,28,29,95,20,-1,2,-35,-23
,19,-2,-70,-18,-8,-36,-16,86
,-10,-25,38,8,12,65,45,39
,4,30,39,17,3,3,89,-7
,4,-11,-17,-37,-11,-23,0,-26
,51,16,74,22,5,28,-91,27
,37,35,0,-2,1,-28,33,-47
,-26,-46,-42,11,3,-6,4,-1
,-25,4,-58,-15,-5,6,54,36
,-39,-20,22,-2,-3,-9,30,-50
,-26,-9,-6,-8,-5,10,-67,22
,-9,9,-35,-8,1,9,-64,-41
,20,13,39,3,1,-16,42,-40
,-19,-20,9,4,-4,13,-101,25
,10,-3,-67,-7,-1,-3,87,-81
,23,-1,-6,-23,-14,-81,-87,-13
,-4,-23,-1,2,1,32,99,93
,-16,2,43,16,10,5,-38,-46
,-33,-24,11,12,3,0,-56,30
,98,18,-46,-21,0,-15,-69,61
,23,-5,-13,-3,-17,-12,16,-41
,-17,-8,29,-4,4,-11,8,-13
,-5,-17,8,5,1,2,4,42
,6,-7,1,3,5,41,-51,12
,-18,26,27,5,10,18,-22,-64
,-22,-4,49,18,4,14,127,28
,11,20,-42,-11,-6,-30,-54,-46
,-48,-15,12,-7,-2,51,66,-13
,-42,-26,-6,-5,-2,-10,-64,-5
,5,28,21,7,2,5,-103,-15
,-44,-21,-42,-11,-4,-47,30,17
,24,10,0,-4,-4,18,67,1
,17,22,6,5,1,-6,-20,4
,-12,-19,-41,-16,-7,-20,-75,-7
,5,-7,27,12,-8,-33,17,23
,15,5,-14,-6,-5,7,35,-33
,7,-2,83,27,12,3,-29,-42
,21,-7,-44,-18,-11,-9,-28,-23
,-9,6,21,-7,-1,8,26,17
,-22,6,-13,-3,-3,11,-3,55
,27,-3,-7,7,-7,-27,-6,-13
,-24,11,3,9,14,58,127,-21
,18,-13,-11,-11,-4,3,-126,-48
,-4,-26,16,14,-3,-42,-78,63
,38,-18,-102,-21,7,29,56,49
,-14,54,39,10,-8,-30,-7,18
,32,-16,-23,-12,0,5,-126,-11
,-19,-6,5,-3,0,-6,22,33
,-14,-12,42,20,-2,-3,-48,27
,48,-7,-27,-17,-4,17,42,-7
,37,-8,50,12,-3,-18,-4,16
,12,40,14,-7,10,38,-8,-37
,-6,-23,17,13,-1,-1,-30,-20
,-48,-12,-81,-21,-5,-20,-85,0
,4,-3,90,22,4,28,123,61
,24,4,-99,-10,4,36,71,-7
,20,45,75,-6,-2,4,-23,4
,-26,-14,20,11,-3,-14,-22,9
,8,-16,-7,-1,-3,-44,-30,-14
,-26,14,16,4,0,-10,-5,18
,-13,2,-24,1,3,1,21,-8
,0,-21,-14,-6,-5,1,-9,13
,-48,15,0,-21,-7,0,81,57
,15,-10,31,0,1,-32,-46,-29
,-28,-8,-74,-2,0,-26,-7,33
,52,15,17,-5,-5,-7,-56,-36
,-58,-15,-7,22,3,49,-8,-44
,30,14,48,7,-2,14,11,-21
,-15,-10,-22,-30,-9,-9,69,47
,54,15,13,11,-5,-3,56,-12
,15,21,-32,-21,3,-2,-35,-17
,8,-15,79,26,-3,-17,-41,14
,13,0,-6,-1,3,-11,-14,-56
,-17,-4,14,-5,4,30,-45,61
,-33,14,-19,1,-2,10,110,1
,-5,4,5,-4,-9,-15,-101,-23
,17,11,10,2,-2,1,-23,0
,-5,20,49,-1,2,4,18,7
,-41,-1,41,13,1,-8,-81,-18
,-10,-51,-96,-17,-3,-47,-6,-11
,6,34,-5,-12,0,4,-8,29
,8,-38,-23,6,4,63,52,-9
,5,-1,49,-11,-4,4,-66,-34
,11,9,-54,0,-1,-24,56,-40
,-4,-18,28,16,9,17,-60,-13
,-39,-27,-9,-8,-14,-20,92,58
,6,6,-24,8,9,-6,-104,-8
,-14,-32,10,-19,-9,3,54,7
,-11,27,-13,-16,-5,-13,-48,-33
,38,-9,-33,0,1,-6,114,-1
,11,2,4,2,-3,20,-87,36
,-41,10,58,17,9,18,101,-11
,6,3,-47,-3,-1,-3,-16,26
,-28,-12,35,-4,-7,-18,-41,25
,46,33,-2,8,7,16,5,-51
,8,-40,12,3,-1,0,-59,-30
,-28,-10,1,-5,-5,-7,46,-5
,11,10,38,-7,-9,-14,57,-10
,45,3,-43,-4,6,-1,-5,-4
,-13,10,9,8,1,0,-17,7
,-9,0,23,15,4,0,-76,-32
,17,-7,-22,3,10,27,58,-9
,-41,-13,-35,-12,-12,-18,55,20
,7,-22,-21,-16,-6,-1,-11,32
,6,-12,-36,-7,0,2,85,50
,9,-35,-16,-3,2,1,11,-23
,8,-7,50,-9,-8,16,6,3
,37,12,-11,6,4,-13,-74,-10
,35,-6,-15,6,2,-10,-57,-38
,6,9,6,-18,-10,-3,31,26
,-11,-17,-14,-1,-1,5,37,22
,-16,-1,28,5,1,-31,74,-8
,-29,22,52,1,3,25,-78,-26
,14,-3,-68,-2,4,-7,59,1
,23,22,-51,-21,-10,-27,-48,7
,40,29,-33,-11,-6,5,-37,-61
,-6,18,26,16,8,8,54,-37
,-3,-39,-27,2,0,-9,51,14
,-60,-6,48,-6,-1,-16,-28,-57
,-15,12,56,1,-4,12,-54,-1
,16,5,4,4,1,-8,78,-17
,5,12,-23,-1,4,13,121,47
,10,-10,14,-11,-4,1,23,23
,-71,-10,53,14,4,13,-103,-39
,-7,-6,-66,1,5,4,-60,-29
,26,14,-30,-5,-2,1,-2,68
,44,1,30,-1,-2,-1,-21,8
,-14,-8,76,28,0,-21,51,27
,-6,-23,-72,-23,1,20,-119,-63
,20,4,-17,-8,2,3,97,-28
,-27,-13,32,3,-7,7,-19,-44
,9,7,-23,-7,4,9,-67,7
,-25,-9,-17,0,4,52,-7,45
,12,6,-79,-29,-4,-3,45,-7
,-11,-17,12,4,-4,0,105,79
,16,-5,22,-11,-9,-21,-94,3
,-15,-3,17,7,-3,-22,-44,30
,-19,9,-17,1,-4,-12,-100,-1
,48,9,-6,2,5,-4,83,36
,14,19,27,-2,5,39,83,-29
,-12,-10,-32,-6,-7,-13,75,-9
,-4,-2,37,10,-1,-3,-63,7
,23,3,-15,-13,-3,-5,-3,15
,7,-7,-36,-10,0,-24,-61,-3
,-67,6,82,21,9,17,48,-89
,4,-15,-42,-11,2,14,-64,-4
,-25,-8,-13,-1,-4,-9,76,33
,-22,7,30,-1,-10,-31,-70,-25
,74,8,30,11,8,29,80,-4
,7,13,-44,-8,-1,13,-17,24
,-9,-1,13,18,3,-28,3,-45
,2,4,-18,-32,-8,-14,-22,24
,-12,37,9,-3,-3,-19,61,27
,37,-32,7,9,4,14,32,-59
,6,14,-10,-10,0,6,-58,16
,2,2,-15,-26,-11,-10,-33,48
,-1,-42,-32,11,8,-1,7,-16
,-23,23,2,-4,1,54,127,93
,-5,-2,-39,-23,-15,-37,-53,-65
,-24,14,21,19,8,-2,-121,-59
,49,-1,-2,7,8,35,88,44
,0,-3,37,8,4,8,-67,-38
,-24,7,14,-7,-11,-37,-56,0
,19,-4,-11,10,11,48,64,1
,-15,8,31,3,-2,0,-27,27
,4,-39,-85,-14,2,-13,-12,-37
,-30,1,42,3,-6,-16,11,-7
,2,23,7,-2,-8,-13,62,20
,56,7,30,2,-5,-13,-52,29
,48,6,10,11,3,-20,-30,-4
,-18,7,-4,-7,-3,26,8,-8
,-27,-5,-86,-8,2,-1,-109,-8
,45,3,-12,0,3,8,-51,-25
,39,-12,-26,0,-2,-45,-107,18
,-59,0,2,6,3,51,33,-3
,-20,-26,-55,-24,-2,12,75,16
,67,19,40,7,5,15,-42,77
,25,10,-3,1,-1,3,40,-33
,16,19,33,4,3,-14,-24,-45
,-8,-23,10,4,-6,-10,64,1
,16,27,-29,0,2,17,19,9
,-15,-3,4,-15,-10,-13,-34,-36
,-45,-29,67,12,-4,-7,-1,-1
,-9,6,20,-2,3,-8,16,19
,-4,-11,-3,-16,-10,2,-45,-25
,-19,8,42,11,4,9,-72,17
,-8,-8,-38,-1,-1,-11,-28,-52
,-28,-10,39,3,3,12,-52,-17
,9,-2,45,12,2,-14,71,42
,4,-23,-50,1,0,9,7,14
,4,3,-14,-26,-5,-11,-52,-31
,-13,6,24,18,0,-5,-50,25
,-9,-9,-63,-6,-3,6,92,18
,6,-26,13,7,-1,5,84,17
,7,11,-11,-5,-2,-8,14,-24
,3,5,-2,-2,-8,-27,-93,-1
,63,-16,-5,-2,-1,8,94,-47
,28,12,10,-9,-5,-13,40,30
,-1,7,-28,-11,-5,-4,-60,3
,-36,-12,-8,-1,-3,-1,63,-19
,-37,-9,17,4,-1,-3,-115,32
,-3,2,-6,4,2,-16,13,17
,22,32,18,3,1,-13,-45,-11
,-5,3,-72,-10,-9,-17,46,-5
,-18,-13,17,1,1,19,10,2
,-18,25,6,1,0,2,74,-36
,-11,-50,43,10,2,7,12,12
,-4,4,3,-10,2,-4,-49,-72
,-6,-10,-15,-2,-8,-23,33,53
,0,9,-11,5,7,21,84,-17
,4,0,24,7,-4,-13,27,67
,-23,19,45,4,0,10,-40,-10
,-5,5,-55,-12,3,14,-52,-29
,-2,-10,38,14,3,7,68,14
,-4,25,8,15,4,-6,-46,-33
,-3,0,-63,-15,-4,-20,-70,20
,-12,-24,25,3,3,15,78,-14
,8,2,1,-2,-6,1,3,12
,2,-12,36,24,10,-13,-4,-22
,-16,18,-43,-31,-10,-9,-110,20
,-11,-10,18,-2,-5,-8,18,26
,-35,7,9,4,-3,-2,25,-24
,5,-24,-27,-19,-7,-15,-52,-21
,-9,1,-29,-9,0,14,6,8
,22,5,37,6,0,-17,64,54
,-16,6,-45,-4,0,11,-17,-27
,37,3,5,-6,-7,7,108,51
,-13,5,45,12,2,7,2,-11
,4,1,-55,-9,-1,-21,25,-6
,-3,-17,13,-4,1,33,44,24
,-31,6,-31,3,10,2,52,-63
,-22,-11,13,-4,-15,-27,-1,88
,-33,18,49,12,3,7,-128,-38
,-11,-27,-128,-14,6,6,31,5
,-61,-11,-30,-22,-10,-2,-30,-13
,19,-7,43,4,-4,-11,-26,-9
,-18,4,-14,16,3,-3,0,43
,99,5,14,-19,-2,-4,-39,-10
,0,-5,91,27,2,7,56,-26
,2,11,-120,-17,-4,-31,36,-43
,5,5,13,-17,-1,52,-3,14
,-5,23,7,13,3,-9,15,-18
,-10,41,0,1,-5,-34,-12,-27
,4,-14,-11,-1,-4,1,40,-3
,3,4,-28,-14,-1,17,-58,16
,5,-4,58,9,-4,-15,-40,22
,7,-4,-36,-12,-4,-11,-36,2
,-11,-6,-35,-14,-3,-1,-85,6
,2,-11,9,17,2,-4,46,45
,-36,2,7,-12,5,22,-25,-28
,14,-15,-4,10,0,0,-61,-13
,-11,0,54,11,0,7,81,26
,-26,27,18,13,7,18,-33,-10
,12,-11,4,-14,7,-14,24,-35
,17,7,9,16,5,5,-23,11
,2,-8,-33,-9,-4,-12,-40,21
,10,-12,-12,-7,5,19,-18,-58
,-36,2,39,20,0,2,67,89
,6,1,-57,-13,-5,-27,10,-13
,47,14,81,19,2,-1,-29,45
,37,-14,-7,3,-6,-11,34,21
,-33,9,35,11,4,21,-106,-74
,-57,-36,-71,-9,-2,-7,-5,25
,38,-6,-16,3,-1,3,-11,-1
,-3,5,53,13,4,4,-35,-14
,20,14,-46,-1,-5,-7,19,-10
,-2,0,6,-13,-1,-8,-1,29
,34,5,29,17,4,5,10,-10
,-19,5,-3,1,0,4,-36,-16
,-3,3,4,1,2,4,86,72
,4,21,23,-13,-4,-7,-30,15
,-2,-10,-39,-9,-1,2,85,-12
,-4,-5,-13,1,-4,-14,45,19
,-1,20,-39,-10,-4,16,-10,-1
,-26,-48,13,-9,-11,-16,-1,12
,1,28,-32,4,17,26,-41,-76
,9,-2,20,7,-4,12,104,-16
,0,4,-15,-13,-4,-20,-13,-22
,8,-26,-5,3,7,21,-26,44
,-24,-28,-7,-5,-5,-5,-73,-7
,14,12,23,7,2,-3,66,25
,39,1,-16,-15,-5,9,-71,-26
,12,-8,-59,-12,2,4,-49,-10
,-15,-12,50,6,-1,-11,-59,-5
,-68,8,9,3,-2,-18,-9,-3
,3,-14,2,7,5,5,52,14
,-17,-3,13,-17,-6,-9,-32,-17
,-7,1,17,-5,-10,-19,-1,26
,36,21,29,5,7,14,-41,-50
,-25,8,49,17,-1,-1,67,36
,-2,-23,-89,-4,-6,-23,-82,-49
,-29,5,19,-1,2,-1,91,21
,15,-1,50,4,7,13,67,-9
,10,-6,-29,8,-1,-9,0,0
,-9,-1,-15,-3,-4,-13,-39,-29
,-15,8,-10,-13,-1,2,45,-16
,-24,-23,-36,-4,-2,4,-6,22
,-15,14,10,8,-5,-16,-48,-14
,-6,-29,16,1,6,20,77,-11
,22,0,22,-6,-2,-2,25,21
,-35,0,4,0,-6,-24,6,29
,43,22,10,11,7,41,25,17
,-1,5,-10,-13,-7,-5,-6,3
,-45,-21,-14,-5,-5,1,-66,-18
,11,-6,13,-6,-3,-3,-10,8
,-5,18,50,6,0,-24,3,38
,-31,-2,-75,-2,-3,15,99,-53
,-38,0,37,6,-3,-20,-48,9
,0,-25,-35,6,0,-5,7,-40
,22,-23,9,-12,-4,5,5,2
,5,20,23,5,1,0,-102,-33
,36,-21,-50,-16,-2,0,70,-34
,9,48,-11,-5,-5,-1,19,24
,-19,-4,-15,8,-2,-12,-82,-29
,-8,27,50,4,2,-21,-8,-7
,31,-19,-11,4,7,26,37,8
,37,2,20,-6,1,20,-34,109
,0,-23,-25,-4,0,-16,-13,-13
,27,-11,26,5,-6,4,14,31
,12,9,-91,-18,-2,-10,-68,-15
,-37,-29,30,9,-2,0,-18,62
,8,21,47,13,7,-6,-1,-37
,-1,-31,-57,-17,1,10,-11,-4
,9,54,64,8,-8,-1,-31,24
,92,0,-17,4,-3,-7,32,-28
,-48,-1,10,-1,0,-4,-16,15
,-7,-6,26,-5,-5,-13,-12,-23
,9,2,39,3,2,8,6,8
,-7,3,-12,9,2,-15,-15,-30
,-9,-31,-73,-15,-5,12,45,100
,-21,19,-30,-18,-3,-8,21,-90
,-3,-16,-18,-3,-10,-25,0,17
,4,15,15,-4,8,48,-85,16
,14,0,-5,5,-4,-12,8,3
,-4,-3,-15,8,7,15,85,-1
,-18,-35,-9,-13,-3,-20,25,-6
,7,9,-11,9,1,-9,-67,24
,-3,1,56,2,3,27,-32,-4
,-2,10,-45,1,-7,-28,-41,-37
,4,-33,27,-4,1,18,-53,-14
,-8,-13,55,6,-4,4,-4,-14
,-3,17,-62,-11,5,4,-33,9
,-49,-11,25,2,-4,-13,31,37
,-12,1,37,8,2,-3,-15,-19
,-6,8,14,13,-1,-26,-82,-9
,-13,-26,-47,-15,-4,19,72,69
,34,20,21,15,1,7,-64,-13
,4,-35,-15,-7,-4,8,50,-9
,-42,37,18,-1,1,-9,34,19
,-28,-34,-7,4,-3,-3,-3,9
,3,13,23,-2,1,8,95,1
,15,22,-32,4,3,3,-53,28
,-38,-15,-36,-8,2,30,127,43
,-30,1,-18,-5,1,-8,-110,55
,-7,3,11,-5,-2,-19,44,10
,7,0,6,-4,-8,12,-45,-1
,0,-7,-100,-20,-8,-15,-3,6
,-15,14,64,-5,-7,0,5,-19
,-3,-15,27,3,-3,-20,-46,15
,48,-1,-31,2,5,33,-19,-46
,4,-2,4,2,3,3,22,-6
,-26,33,9,-1,-10,-19,21,-13
,54,-28,-45,-17,6,14,-55,-6
,0,12,-2,-6,-12,-31,75,-9
,0,-24,20,13,11,31,-49,-7
,14,1,-50,7,3,-7,39,29
,-1,11,1,-6,3,4,13,12
,-12,-21,15,7,-5,-9,-19,-29
,31,16,27,4,3,8,-37,12
,34,14,-13,-1,4,1,3,-19
,-2,-6,-17,1,2,18,82,-24
,-6,9,8,4,4,-12,-22,-19
,18,-21,27,4,-7,-20,36,52
,-68,-10,-42,-18,-2,23,-8,-81
,20,-8,-35,-8,-1,-1,-79,3
,-1,31,75,22,-3,-19,30,-19
,2,13,48,0,-7,-16,0,52
,-16,-26,-42,0,7,25,-66,-9
,10,25,58,23,-4,-1,63,11
,33,24,-32,-16,-7,-11,-77,-25
,-38,-29,-7,-11,-5,-7,32,-34
,17,-6,19,1,2,-5,-31,30
,8,-8,31,7,-2,-7,-17,-26
,-26,-4,-41,-12,-2,-3,-7,25
,62,9,2,-3,-2,16,-3,-70
,-14,-3,-44,-10,0,6,-9,-31
,16,22,6,6,6,40,3,37
,7,-16,-3,-25,-11,-7,14,17
,10,-2,23,14,7,0,-4,-28
,15,24,-9,-7,-1,8,-31,1
,-24,-2,35,16,1,-11,62,46
,2,-11,-52,-2,-4,-3,-12,7
,16,35,34,-2,4,0,36,19
,10,-19,-11,3,-2,-5,19,-17
,-1,3,12,0,-1,-28,-81,-47
,-3,-8,-7,-3,3,24,21,22
,13,-4,2,-4,1,33,-71,0
,11,29,-10,-29,-5,-19,78,20
,-18,-10,-34,1,-6,-11,-128,-69
,-3,1,34,3,-3,-10,105,69
,2,-6,-8,-1,0,-2,-47,3
,33,17,16,7,4,20,65,3
,-16,-19,-15,-1,4,7,-65,8
,-3,28,73,18,1,1,-37,42
,2,-16,-84,-26,-10,-10,2,-23
,-10,-13,32,16,3,-1,-49,-2
,-4,-12,15,5,4,6,12,21
,23,-1,-69,-11,-8,-28,-23,6
,-57,8,6,0,-2,13,-23,13
,-12,-7,-32,-3,-4,-14,-28,-64
,-49,-12,7,6,3,22,61,30
,-29,-16,-22,-20,-10,-2,-86,-87
,-31,22,31,5,0,17,66,-1
,13,-19,-9,-6,-1,1,-89,-22
,-10,-2,-5,6,3,-16,37,1
,3,-5,42,18,7,7,-51,-37
,-34,-7,13,-14,-6,-25,-95,-25
,10,2,-34,14,4,-9,95,49
,-22,-16,-48,-13,2,25,10,26
,-58,2,13,1,1,-6,-12,-43
,-30,-18,22,4,-2,-2,-35,12
,-10,21,25,9,4,5,101,-1
,-6,-3,-30,-4,-7,-14,-23,-32
,-9,-35,47,-20,-9,-15,-16,35
,10,-2,-23,-9,-5,4,78,35
,10,17,13,-1,-4,-8,-80,-29
,40,21,9,-21,-9,-12,-14,11
,-9,-10,18,3,1,4,4,58
,47,7,20,-6,-6,-6,60,-38
,-21,-4,-8,4,-3,-14,-65,-15
,-9,0,38,15,6,-15,-15,-19
,13,-8,-104,-18,-3,4,-56,15
,-7,-11,70,19,2,-2,0,-2
,-48,9,-38,-25,-5,-3,-2,23
,7,-7,-3,8,-2,-8,0,-15
,-34,4,51,4,1,2,1,4
,28,1,-31,-6,-5,3,-65,6
,-4,3,74,7,0,-11,27,-56
,-4,-1,10,-1,2,-2,92,-14
,-39,-12,-17,-11,-2,-12,32,-5
,18,9,25,6,6,32,-12,7
,-22,-10,8,5,-4,-5,-18,-16
,3,19,-1,-3,-2,25,-60,-16
,18,-24,-14,-8,1,8,71,12
,-4,6,7,-5,-8,-27,-58,-19
,1,1,18,10,-1,3,21,42
,-8,-19,-8,4,2,5,5,14
,-17,10,52,21,4,-9,60,14
,10,-23,-81,-16,-2,-9,-15,-16
,10,2,18,-14,-5,-3,-79,-11
,-11,1,9,4,-2,-19,33,53
,19,6,-3,-13,0,15,-31,-77
,12,-5,24,13,3,-3,33,-4
,-47,18,14,6,1,8,-7,58
,-1,-19,-24,-2,0,-7,45,-14
,18,-5,-71,-19,-4,-15,-32,0
,-33,-13,2,4,-3,5,26,17
,-24,7,-9,-30,-2,11,-126,-1
,-18,12,3,-2,-5,-7,52,4
,15,-12,8,13,1,0,26,39
,-22,15,17,10,5,4,20,-42
,29,-28,9,-5,4,35,78,38
,8,-1,-22,-14,-6,7,-22,54
,-29,18,25,2,-5,2,-9,-61
,8,-19,3,6,3,1,-21,-32
,8,4,-11,-2,-8,-23,-3,20
,9,25,-9,-1,-3,-3,-52,1
,49,14,9,9,2,-17,25,0
,9,-14,37,3,-5,-17,-6,-36
,12,-7,-42,-22,-6,-3,-9,8
,-25,4,24,-8,0,15,23,-23
,-8,16,77,19,0,7,43,14
,-42,-5,-35,-8,-1,-4,-4,-33
,25,-11,24,12,5,-2,12,-18
,0,-1,-18,-11,-6,-12,-35,21
,-29,-3,20,11,-6,-12,-75,22
,12,7,25,-3,0,1,16,-20
,18,5,-37,-1,0,0,-60,22
,-6,-14,9,-1,2,6,65,21
,-3,1,-17,-18,-1,16,35,-24
,1,7,-8,1,-2,-7,-36,22
,4,-11,0,10,5,0,-1,59
,-23,23,21,-17,-7,-28,4,-7
,17,11,39,13,4,35,94,5
,-16,-31,-33,-3,0,2,8,-12
,-57,-4,1,-8,-8,-7,-29,6
,-3,-13,-12,-5,-8,-11,-18,-27
,6,13,-18,-7,9,-20,-42,-4
,56,17,28,3,0,-2,9,32
,-30,-16,-15,1,2,-4,-56,-50
,-9,-5,-20,-7,5,39,76,-18
,11,-8,-13,-3,-3,-7,20,-5
,0,-1,-3,-1,3,-9,-61,-34
,-36,-25,0,-5,-5,9,33,47
,-1,39,20,7,0,-15,-16,-6
,18,-16,-39,-2,-3,-8,-12,-3
,-12,-35,-18,-7,0,-3,7,-2
,28,21,-7,3,-3,-20,-11,-12
,14,25,24,8,2,25,13,0
,-46,-31,-45,-14,-6,-6,11,-65
,14,-1,-16,-10,-5,-22,-79,-17
,-7,9,1,-2,4,-6,-8,66
,-1,-2,-3,0,-3,3,31,0
,-23,-23,10,10,0,0,2,-8
,-51,23,13,-14,-10,-17,-75,1
,35,11,11,5,3,9,50,-13
,-18,11,-32,5,8,1,36,-1
,-9,2,34,3,-6,-4,-3,26
,44,-16,-25,-10,-3,-16,12,14
,22,20,11,-1,4,26,-35,2
,36,2,-7,3,0,14,120,23
,-14,-8,34,8,-8,-23,-15,6
,7,-12,-19,1,3,11,14,64
,-2,-16,-42,-2,4,5,28,-57
,-11,16,11,-20,-9,-25,-27,-30
,29,-17,-34,0,3,-6,-14,-8
,-27,32,40,-3,0,10,4,18
,-9,-13,35,10,0,-6,11,-5
,-2,-2,-25,-9,-1,-1,-15,10
,-13,-5,-9,-1,1,5,-5,-7
,0,-10,-15,-4,2,-3,-3,-36
,18,-2,-4,1,-4,7,-36,-25
,-10,-6,-8,16,0,2,-68,-21
,-76,1,1,-24,-2,-5,21,49
,11,-25,-60,-10,-1,6,-14,-18
,6,10,18,1,1,-5,15,11
,5,-38,16,8,0,-16,-58,-35
,-58,40,-48,-6,-3,-1,64,31
,-15,-14,40,14,10,23,-29,13
,-2,15,4,-4,1,-8,-36,7
,-19,25,6,5,-4,-27,10,-28
,36,3,14,5,3,27,95,4
,-38,-2,59,8,3,17,-19,41
,65,-17,-74,-35,-11,-23,-48,-38
,-93,-8,25,11,-2,-2,108,5
,13,0,-13,9,3,-9,-66,-20
,15,-9,0,-32,-16,-29,-48,34
,19,33,64,7,0,-10,28,-20
,19,-40,-45,4,1,18,-59,-4
,-18,23,40,2,-2,-20,-25,-12
,8,2,9,2,-6,-6,-16,12
,-9,-4,13,1,-5,-7,20,21
,25,7,-8,-11,0,-2,-45,-20
,-2,-17,-35,2,1,6,10,-45
,4,18,22,3,2,1,-5,5
,-13,-12,-4,-7,-2,-2,-85,-3
,-12,9,-9,4,0,-3,29,-39
,22,-4,-3,1,-2,1,50,31
,-9,-5,-1,-10,-9,-11,-7,6
,-22,-14,-4,-2,3,1,-4,-5
,21,-48,9,12,3,3,18,-3
,-7,-6,-49,-28,-7,2,14,-2
,20,-11,22,16,3,-2,3,-4
,0,18,4,4,-3,-6,-18,18
,-9,19,-44,-22,-4,-15,-51,32
,-9,-6,-2,5,-2,11,106,-10
,40,-4,20,9,0,0,84,19
,-4,-12,-47,-6,1,5,-28,-16
,22,-18,26,3,-1,0,34,12
,-46,-23,6,-1,0,-5,-15,7
,33,49,48,-1,-1,-12,-31,-31
,31,-31,-25,-4,-1,5,10,0
,7,20,-25,-1,-9,0,-13,38
,-7,-14,-6,-14,4,-14,-45,-41
,8,-5,-32,5,4,5,-2,53
,-14,23,15,6,-11,-12,81,0
,11,12,21,-5,2,17,-3,-24
,-4,-21,14,10,2,10,-34,6
,1,-20,-72,-14,-5,-10,-31,21
,-3,15,5,7,4,-1,28,-4
,2,16,29,11,7,1,60,-23
,-19,18,9,-8,1,6,-40,6
,-29,-30,-30,5,-2,-3,-6,-38
,38,2,14,2,-2,-18,-26,11
,-11,2,5,-3,-5,24,36,-5
,26,-2,20,-2,-11,-26,-19,21
,23,5,10,5,4,1,2,-52
,-1,-12,-20,0,0,1,110,22
,-37,-12,-13,6,-2,8,-73,-86
,4,0,-26,-3,-1,1,-91,-5
,37,6,49,8,-9,-33,-27,31
,-3,-7,-19,-3,6,18,-68,-11
,-25,-5,41,7,1,14,67,60
,-1,-14,-43,-8,-3,0,-11,-77
,0,38,20,3,2,7,46,-26
,29,18,-34,2,0,-1,-37,-2
,9,-21,-6,-7,-3,-14,11,-31
,25,5,42,-12,-6,10,43,22
,1,-22,1,-2,-3,-4,-56,-1
,-20,9,20,9,4,4,17,-1
,13,-6,3,4,3,-21,-60,5
,-15,-10,-23,-1,1,10,53,-18
,4,5,-47,-3,-1,15,-36,9
,-39,-17,-4,-4,-6,-12,-66,10
,5,10,12,3,0,-14,29,40
,14,-10,-8,-12,2,22,-34,13
,-30,6,14,5,-6,-12,17,30
,17,-12,15,1,1,14,15,17
,-47,18,-12,0,2,15,26,-2
,10,0,28,17,4,-15,50,-13
,7,-13,6,4,3,12,-26,3
,40,18,40,-1,-3,-3,55,-4
,22,7,12,13,7,15,17,-24
,19,-6,11,7,-1,-8,21,14
,-45,-13,-81,-25,-6,9,-51,-25
,31,9,22,6,1,-4,-5,2
,-58,-1,-5,7,4,10,104,61
,11,13,-7,-10,-6,-4,-79,-16
,-2,-2,46,5,-6,-5,-6,-9
,2,-12,0,-15,-9,-11,-52,-6
,-10,6,13,-21,-9,6,26,13
,-43,3,-21,-3,-4,-18,-6,14
,27,-24,3,1,1,-3,-13,-32
,5,14,-13,5,-5,-11,-44,-27
,30,-20,36,8,-1,-6,-4,61
,-32,1,4,7,5,4,115,-14
,-16,6,7,-21,-6,1,-45,50
,-27,-11,58,17,1,11,35,5
,-7,12,-92,-16,-1,-3,16,-5
,22,6,8,2,-2,-5,71,0
,-3,-2,41,8,3,24,4,-11
,6,-12,-29,-4,-1,5,-27,7
,37,9,-21,-6,-1,-7,-3,-11
,30,11,0,-3,-8,-9,63,21
,-35,-6,6,10,9,0,-78,-40
,-6,18,16,9,-1,-17,-14,-25
,16,-13,-56,-10,0,17,67,78
,13,5,-3,-8,0,18,6,-72
,15,-12,13,-3,-3,-15,10,11
,-24,-27,13,0,0,-6,-38,-31
,-62,12,24,7,0,-15,-128,-38
,8,-10,-4,-2,2,4,104,14
,22,-10,-54,-12,-2,13,29,-9
,7,4,45,7,-6,-20,-76,14
,12,10,17,14,3,-26,80,-2
,-12,-11,6,-3,1,8,-45,12
,39,25,46,20,6,14,13,-9
,32,-14,-52,-21,-6,6,-7,46
,-3,-5,29,4,1,-3,-28,-2
,11,9,-46,-19,-4,7,37,25
,-25,-8,45,11,-1,-16,-8,-17
,16,-13,24,11,6,11,48,7
,-22,15,-6,7,2,5,-20,13
,-12,8,-37,-2,-3,22,53,-4
,29,0,-43,-13,-2,2,4,17
,-15,-13,14,-6,-5,-9,-2,27
,56,-9,-13,1,-1,3,-25,0
,-10,12,16,2,0,1,-14,3
,-5,-19,35,8,-1,-5,24,-52
,-28,-4,-11,-11,-9,-26,-77,7
,-1,0,11,2,-1,1,30,3
,14,29,25,9,5,-4,21,-5
,-34,-19,-6,-2,-3,-18,-22,-4
,-10,-6,-12,-10,1,46,57,-26
,-5,38,-28,-23,-9,-17,26,-43
,-4,4,-26,3,5,13,52,9
,32,-3,25,8,0,5,-15,4
,-53,-2,-16,-6,-1,20,7,-35
,-14,-37,-11,3,-3,-9,-22,18
,37,-1,-15,8,7,3,-15,-3
,-15,12,22,-2,-4,-10,-21,19
,11,3,-11,-3,-1,-5,-24,-57
,12,8,2,-11,0,13,15,34
,12,-2,0,-1,-10,-28,80,44
,15,3,-8,9,-5,-10,65,1
,3,5,-5,-7,0,-16,-115,3
,19,-21,21,-1,-1,0,20,-9
,-11,10,-35,0,-1,-15,23,21
,21,5,15,-2,-1,0,-54,10
,9,-5,28,3,-2,2,-11,41
,6,14,13,-7,1,30,15,-8
,-8,-14,-51,-14,-11,-32,11,-24
,-28,-7,20,5,1,11,-90,-12
,-12,3,11,6,6,6,39,-17
,10,-7,-85,-26,-6,2,16,-13
,61,-4,33,21,3,-6,-8,-42
,6,24,-6,-2,0,11,7,-21
,-17,-32,-57,-26,-8,-17,24,22
,2,15,80,12,1,4,-13,-1
,20,8,-22,0,-1,-22,-21,-13
,-3,4,-28,-2,5,19,-85,-22
,-4,-11,-34,0,-4,-16,97,34
,-20,4,64,0,7,42,-25,-8
,-18,-18,-45,-7,-6,-24,-55,-6
,6,8,-11,3,6,16,2,26
,2,3,57,9,1,14,-25,-9
,1,-9,-70,-27,0,-13,108,11
,-32,-8,-41,-2,7,37,50,-2
,16,-11,31,7,-7,-19,8,-2
,7,23,9,-7,-4,-10,-120,-24
,4,-11,14,16,1,4,53,57
,10,1,13,-23,-5,-2,-77,-14
,-10,-18,-24,5,-1,-17,10,3
,-39,6,-18,-16,-2,12,-29,-10
,25,-30,-44,-18,-6,-15,-61,28
,16,8,22,-3,2,8,9,-15
,16,-16,10,5,5,7,-85,-16
,-10,-9,7,8,-6,-21,-19,14
,-1,9,-1,-7,-2,13,-69,-31
,-15,11,-32,-8,-1,-20,90,-56
,-12,6,73,5,9,57,88,12
,-25,-31,-60,-8,-6,-28,-23,-19
,26,-6,-57,-7,2,32,127,25
,27,4,29,6,-4,-9,-69,-4
,13,-8,27,-5,-7,-26,-12,22
,8,-9,-11,1,-2,22,37,17
,-8,0,-23,3,6,-6,90,-1
,31,-6,-60,-22,2,12,-31,26
,20,34,-18,3,5,-12,-2,-43
,-26,-14,-5,-3,-11,-8,39,35
,3,26,-8,17,2,6,-101,-53
,14,13,18,-1,-1,11,-25,-30
,-31,-15,0,-18,-7,-16,-7,-36
,-11,1,-20,5,5,9,-42,-29
,-35,13,-6,8,3,-14,-61,-52
,-18,-35,-6,-6,3,45,86,40
,31,8,41,-1,-6,-13,-92,-21
,-17,-32,-32,1,-10,-45,-45,1
,-55,12,53,20,2,7,22,9
,21,-28,-69,-22,-6,-25,-58,23
,12,3,29,-2,-6,-2,1,10
,1,2,-62,-5,-9,-3,-95,-13
,-6,2,66,7,4,11,3,14
,0,5,5,16,7,-5,11,-3
,14,-18,-27,11,-4,-5,-2,31
,3,24,41,-3,0,-14,52,-1
,28,-4,-4,8,5,9,3,-59
,15,3,43,5,-4,-22,6,22
,4,5,-56,-13,-2,-9,68,-14
,2,-19,58,2,3,26,84,-6
,8,-16,-77,-9,-6,-13,-37,-5
,5,-14,31,6,-9,-47,10,27
,-1,10,15,9,10,57,19,-25
,10,4,-24,-8,-4,-5,-114,4
,12,-6,2,0,-9,-25,9,10
,-72,-18,2,-18,-10,-5,75,25
,-33,-23,11,9,18,48,-1,0
,-13,7,50,9,0,-14,-54,-6
,-4,3,-14,-4,-5,6,-14,10
,20,9,6,-3,0,3,-26,2
,-2,-29,-18,-2,-7,-17,-6,9
,-27,39,6,12,4,12,28,-7
,22,-12,42,-5,-1,-4,9,7
,9,7,-2,10,-1,-29,15,12
,-32,-8,-58,-20,-6,-28,-85,54
,22,15,1,12,6,3,46,-22
,-6,14,-2,-7,-1,10,-33,5
,30,-5,68,12,0,-21,32,-21
,26,-8,-44,3,-2,-15,-91,32
,-23,-20,-37,-13,-3,2,69,52
,8,-12,-10,-3,7,55,24,-1
,-12,3,2,-9,-6,-2,-77,19
,0,37,37,12,-2,-1,25,13
,23,-11,-54,-3,2,-8,-29,19
,-13,-9,-47,-15,-3,3,-45,-42
,-45,2,62,12,-6,-10,-36,-15
,47,10,-14,-6,-7,-5,11,17
,-85,-29,22,8,10,13,48,30
,20,-10,-1,9,2,-8,-38,-37
,4,-1,27,-3,-3,17,-4,-18
,36,-27,-24,-29,-14,-36,-55,6
,-8,26,48,20,6,18,22,-3
,-17,-35,25,-5,4,23,-10,-3
,-8,10,-97,-10,1,5,-20,-6
,-12,11,33,9,4,-24,9,37
,16,5,10,3,1,9,-66,-40
,-11,-16,-26,-10,-5,-11,7,10
,22,8,-37,-8,-10,-25,-3,2
,3,1,35,-2,3,13,57,-6
,-26,-17,24,6,1,4,-87,23
,59,12,-1,-3,-2,-19,44,-3
,-3,1,64,10,-5,-16,-66,-13
,-20,1,-24,-17,6,29,127,9
,-24,-3,38,7,7,-1,13,16
,22,-7,7,-3,-11,-4,-48,-35
,32,23,6,-2,0,20,127,18
,-21,-3,6,15,2,-4,15,58
,16,16,-3,-11,-6,-35,-3,-18
,-8,8,-19,2,-2,7,17,-24
,4,-3,12,-10,-9,-40,-63,6
,5,14,18,4,-3,27,-39,-4
,0,-32,-47,-4,3,5,31,-3
,-9,11,3,12,-2,-21,-27,-12
,10,0,-1,-23,-6,13,40,-5
,22,4,1,-1,-2,-7,34,-6
,-23,8,-26,8,-1,-10,-26,-6
,-13,21,-29,-1,5,2,25,-6
,11,4,30,-1,-1,15,9,13
,33,-6,6,6,-1,-13,9,-8
,28,18,35,7,0,-11,-9,-29
,-4,-36,5,-14,-1,13,-31,11
,25,2,-9,6,-5,-28,11,98
,-13,-13,-7,-13,-4,-20,79,-10
,-51,-11,14,6,-2,-6,-46,8
,-6,12,0,-4,-1,22,-3,-25
,4,-9,8,11,4,-9,6,-5
,-35,3,43,5,-2,-25,-15,6
,-10,-22,-12,-6,-3,18,16,-13
,18,3,27,10,7,17,-17,5
,5,15,-15,8,6,0,19,-14
,-14,7,-15,3,-5,-28,-21,17
,16,-10,7,-15,6,43,71,3
,57,1,-42,0,3,2,24,0
,41,15,2,6,-12,-23,-37,-69
,2,-37,-26,-20,-4,-4,-4,-6
,-20,20,21,5,-4,-22,-61,-15
,-18,8,69,12,5,16,4,-21
,8,-17,-24,-7,3,13,-32,-48
,-44,15,22,3,0,6,-4,21
,20,-9,-10,-3,-5,-8,-81,9
,4,-16,0,8,0,-6,7,-8
,2,22,12,2,1,-3,5,10
,8,-11,-43,-10,4,-5,-38,-17
,-33,-26,46,10,-2,-4,20,19
,-45,32,-45,-17,-4,-1,12,21
,-15,-7,22,-5,1,18,30,25
,2,-6,7,8,-2,14,10,-11
,-4,25,42,11,5,0,37,-13
,16,28,44,5,1,-7,13,40
,-11,2,-62,5,9,25,18,12
,25,-15,76,9,-3,6,41,7
,-29,-5,17,0,1,-3,-19,11
,3,-1,-28,-22,-4,-4,37,-23
,6,-16,-6,-4,-5,2,-8,0
,3,19,-39,-7,-3,-3,-11,-12
,69,-14,5,9,0,-13,36,24
,-3,7,-3,11,1,4,2,36
,-13,10,30,3,-3,-28,-89,-20
,-4,2,-3,12,1,-1,-68,-18
,15,13,20,-10,-2,10,76,27
,-23,-19,21,10,1,-21,-87,-10
,23,25,14,0,16,80,100,3
,10,-7,-15,-2,0,9,-32,-12
,-12,-28,-3,8,-1,-11,-7,-9
,12,30,31,9,-3,-5,-25,2
,6,-27,-51,-23,-11,-37,-34,5
,-29,2,38,3,-1,-8,18,-21
,14,-3,20,0,6,36,-92,-17
,18,-7,-4,6,-1,10,30,64
,-26,18,-32,-19,-4,-9,-17,-12
,14,6,-1,2,-7,-13,-32,-35
,-26,-1,42,19,6,-9,42,27
,3,-23,19,-4,0,21,27,-48
,52,-2,-90,-10,-3,1,2,-9
,16,11,34,7,2,1,25,23
,9,8,34,5,-5,-21,55,-16
,5,27,-36,-12,1,-2,18,56
,-28,-47,-7,-1,-1,-3,52,-2
,-4,4,25,2,-1,0,5,9
,2,-12,-5,-5,-3,1,-6,10
,5,17,-19,6,6,9,4,9
,-52,-3,32,6,1,5,-42,-41
,-30,-5,-32,-7,-2,1,7,-47
,20,16,13,-5,-12,-26,-25,47
,-5,-35,-2,-11,6,25,68,-18
,-1,-4,-53,0,-2,2,-24,10
,4,14,17,-6,-3,-1,1,-12
,-8,-15,12,7,-4,-24,-31,4
,-26,-18,18,1,-1,-11,34,42
,-1,4,42,12,9,16,14,-16
,-2,-12,-45,-15,-10,-20,68,-5
,11,-6,24,15,3,0,47,-2
,9,15,-18,-4,-1,2,14,-11
,10,23,34,9,4,12,-18,12
,-8,-28,-16,-2,5,18,9,-8
,-7,-3,30,8,-10,-32,-42,1
,0,-5,-7,-15,-4,13,-6,-20
,2,-2,-35,-17,-4,-4,-12,-6
,-14,0,4,12,1,-8,-41,-37
,-10,-9,-16,-5,5,0,-15,25
,-12,-11,7,-4,-4,5,52,32
,16,41,37,8,-2,-10,-32,-22
,7,-11,-28,-2,1,-17,23,-2
,-29,-18,-28,-20,-3,24,2,4
,68,21,-4,12,2,2,6,-3
,-10,-5,14,2,-2,-15,-76,-10
,-6,8,8,8,-2,2,22,8
,-15,-3,-5,-9,-3,-6,47,-14
,-1,-9,-47,-35,-1,32,-40,-9
,31,8,43,11,4,25,31,10
,2,-3,-16,-2,1,0,-30,-68
,21,-1,-3,-5,-6,-1,68,3
,-14,-18,-11,6,-5,-51,-43,-5
,-13,11,21,4,10,68,85,45
,1,6,27,6,5,10,-11,45
,-7,-12,-25,-3,0,16,-7,46
,2,6,31,5,3,-6,11,-24
,1,22,39,0,-2,5,8,-13
,-9,-3,-28,-13,-4,0,54,24
,17,-9,17,12,-1,-18,-34,-3
,-17,-5,-40,-2,-3,-18,-75,-7
,22,38,16,-15,-6,15,113,27
,18,-25,-6,11,2,-1,-47,-32
,-2,3,-25,-1,-2,-12,-13,13
,-16,6,21,1,-2,-1,36,-28
,2,-16,-50,-16,-2,-12,-11,-2
,23,33,56,17,0,-1,-57,20
,66,-6,-28,-10,-12,-35,15,-79
,16,-26,-79,-8,2,28,120,12
,-24,-19,-33,5,-3,-18,-27,-5
,10,29,27,-7,-5,-6,-37,-6
,63,-17,29,-3,-3,-7,80,-18
,-19,20,-3,5,1,-1,-20,6
,-13,17,24,2,-1,-28,-79,28
,-20,-35,-57,-3,-3,9,35,-20
,-1,6,19,-17,-5,7,-14,13
,0,-13,-3,-3,-3,-1,-15,10
,11,-3,-3,0,-3,-10,31,38
,-2,21,37,-3,-9,3,13,57
,-60,-8,41,0,5,24,-58,-58
,-2,-4,13,0,-2,1,77,37
,-18,-9,0,11,1,-12,-33,-1
,-32,-6,15,-4,1,-4,-7,-58
,0,0,-23,4,5,26,17,19
,-36,-6,-24,-19,-7,3,-39,-1
,23,-13,-2,5,-6,-11,-80,-1
,-33,26,14,20,7,-8,13,-55
,18,-2,18,-5,-4,-19,43,26
,10,-15,-35,-11,-12,-41,-4,41
,15,12,49,16,11,43,1,1
,-29,-5,-78,-13,-3,-15,-46,2
,3,-17,28,1,-1,1,26,27
,-32,40,20,-1,-1,-27,-104,-53
,2,-35,14,-9,-5,28,105,16
,31,28,4,10,-2,-3,1,30
,-3,-2,-20,7,5,8,-29,-13
,-9,-3,95,17,3,12,20,13
,-4,3,-97,-18,-5,-25,-45,1
,36,19,17,8,-1,34,26,18
,-15,-2,11,21,3,-17,16,-3
,-30,-2,24,13,4,-2,31,16
,-13,20,11,-26,-4,-1,-30,1
,13,-12,-24,-8,-6,-3,-11,-7
,25,22,19,-9,0,-9,16,-27
,-21,-13,87,19,4,6,-58,-4
,2,-6,-73,-17,-2,4,11,14
,23,8,77,6,7,4,38,10
,-16,-33,-63,-14,-3,3,-59,0
,10,-14,29,0,-3,10,20,4
,-2,1,32,19,0,4,1,-16
,31,16,-40,-37,-8,-11,-20,27
,-5,-28,17,17,3,19,-53,0
,27,-9,-83,-6,6,3,101,59
,-18,-4,54,9,-2,-24,7,3
,7,27,26,4,3,14,-19,5
,-20,13,-30,-1,-6,-11,-6,-17
,-7,10,-7,-17,-9,-28,-34,-44
,14,-5,-13,-3,2,25,-33,-19
,-12,-9,-7,8,-8,-24,39,-62
,-65,7,44,8,1,-11,-73,-6
,-7,-4,-61,-13,2,9,68,42
,-35,0,65,13,0,8,9,0
,-10,-50,-72,-20,-4,10,5,5
,16,53,50,16,3,-8,22,-20
,5,-22,-49,-14,-1,10,-128,-30
,5,7,-21,-3,2,-6,46,-5
,6,22,42,-2,0,23,59,88
,11,2,37,16,0,-2,-10,-6
,-16,-14,-15,-10,-7,-12,-2,10
,61,9,-79,-22,-9,-18,-95,-32
,-46,-22,9,13,5,25,-42,-19
,35,-4,-34,-13,2,-1,80,23
,13,-9,36,15,-2,-7,-28,-17
,7,20,-38,1,-3,-17,15,16
,29,-20,5,-6,-9,-17,33,11
,-21,-1,7,4,8,3,11,-1
,0,-20,-11,4,0,2,14,-9
,-4,10,13,-8,0,2,-48,2
,8,2,3,15,5,-12,62,-9
,-13,27,30,19,3,-7,-20,-30
,-33,-16,-36,-20,-8,15,34,36
,-7,-11,-2,4,7,22,-32,-13
,-16,25,-2,-11,-9,-41,-41,20
,7,-16,2,-24,-13,-1,-47,8
,28,10,-5,8,2,5,20,-28
,-8,-14,15,-8,-6,-15,2,1
,-8,-10,25,15,2,-2,39,-4
,24,8,18,0,2,2,29,34
,7,-9,-3,0,-2,-2,50,1
,19,21,-34,-9,-7,-8,-49,54
,38,3,34,10,6,2,3,-68
,2,6,1,2,-2,1,-62,38
,-36,-7,-8,-2,3,16,-12,-25
,-11,4,26,6,0,-3,12,3
,-21,-28,-13,-5,-3,-8,-59,17
,2,3,-30,-1,-9,-20,40,-3
,8,5,10,17,7,25,-43,34
,-12,12,46,-11,6,36,110,19
,18,0,-57,-17,-1,-1,-58,-18
,-12,-28,45,10,-5,6,-61,12
,6,-18,-58,-3,-3,-33,37,-10
,-16,-19,-8,6,-2,-7,6,0
,2,0,-8,5,2,16,-18,2
,25,28,-16,-11,1,8,9,6
,20,9,6,-5,-7,-18,1,-35
,-31,-6,-1,-2,-4,-12,-42,-33
,15,1,-39,1,2,9,39,-2
,-49,-25,8,-11,-11,-17,-91,-8
,-29,23,76,19,-3,-32,46,27
,29,-38,-78,-11,3,56,16,43
,22,20,47,-3,-1,-2,45,-28
,-42,-5,-25,5,7,21,-5,46
,40,-9,-42,-26,-1,-6,4,-2
,-7,27,53,5,-6,-43,-15,-4
,-9,-43,13,13,5,39,56,30
,-2,34,10,0,2,3,-34,-46
,-3,0,-21,-6,-1,-10,23,9
,6,-1,-9,4,2,-19,-76,-35
,-49,8,52,7,-7,7,6,-7
,37,-19,-63,-16,0,-14,49,-29
,-12,3,78,17,7,20,-53,8
,-50,24,9,-7,-6,-11,-4,-28
,-10,-6,36,-5,-1,-5,-67,-17
,15,-30,44,6,4,-4,30,-41
,-25,-10,-6,1,-3,-3,-6,-1
,1,10,22,12,2,20,-3,-20
,4,25,50,12,-1,5,-35,11
,47,-15,-29,-21,-4,-20,-11,50
,6,-12,-30,12,10,34,91,12
,38,23,34,-1,0,2,24,43
,8,-9,-12,-2,-1,2,-10,-48
,-8,9,13,-3,-8,2,6,56
,21,21,-12,-5,-4,-35,-38,-6
,-22,-42,14,7,5,9,32,26
,-9,-22,4,2,-1,-6,-24,-24
,-12,51,-53,-6,-8,-10,6,-25
,-1,1,-13,-9,-1,-6,-6,-4
,30,-4,-7,-3,-3,13,26,1
,-18,26,33,-4,-5,-7,-96,-9
,-3,-32,-9,9,5,6,89,-29
,10,11,1,1,2,9,-9,34
,4,-4,-67,-14,-3,-8,-17,-29
,-16,2,36,11,1,15,60,14
,-1,-4,-37,-10,3,4,-5,27
,39,12,55,-7,-6,-9,50,12
,20,-2,-12,5,-1,-1,30,-25
,-38,-5,-19,-1,3,0,15,-22
,-36,-24,23,-9,-3,5,-46,-32
,-1,-2,-4,6,-8,-39,10,-15
,-26,1,2,-6,-2,-1,-54,39
,14,30,77,9,-2,3,-4,-11
,15,-31,-44,-4,-3,10,97,-4
,-17,20,-19,-19,-2,-14,-45,-6
,-10,-5,-26,0,-3,-6,15,-1
,8,0,10,4,2,-1,-18,-1
,7,3,29,7,-1,-10,-6,-10
,11,-4,-16,1,-2,0,-37,0
,7,9,16,4,1,-5,22,-10
,8,-14,-26,-13,-5,1,-37,21
,-8,3,13,-2,-1,-4,7,-18
,-3,-6,-41,0,8,8,29,-4
,-9,6,-9,0,-3,0,-13,-10
,-15,-9,57,1,0,5,3,7
,14,-8,-65,-19,-9,-1,-16,-6
,6,-2,18,0,-4,-6,-26,-18
,0,4,5,-2,2,-4,10,-3
,4,-20,-11,1,2,3,35,56
,14,30,43,17,5,-4,-22,-4
,-2,3,-8,-3,0,6,-18,13
,-3,-7,-17,-5,-8,-5,3,-20
,-1,-1,-15,0,7,5,11,2
,-5,-5,11,7,3,1,-6,-3
,-9,-10,-12,-7,-2,2,-19,-4
,-5,1,13,15,-1,2,21,10
,4,5,-14,-10,-3,-7,5,-11
,-6,-15,-2,1,7,0,-8,-4
,0,5,2,-2,-3,2,-4,-3
,-3,-5,6,-6,-2,-5,4,-4
,7,0,-17,6,-8,-2,6,-3
,0,3,16,-3,-9,-1,-7,-9
,-5,-6,-5,-25,5,0,-4,10
,-1,-1,-7,20,10,6,7,-2
,0,3,-1,25,-5,-4,-2,-10
,-6,-3,1,-25,-3,1,1,6
,-1,-3,2,12,7,-2,-5,-1
,1,3,-5,-23,-2,2,1,-2
,2,3,-2,0,-2,0,3,-7
,-3,0,28,24,-7,-7,-6,-2
,2,-8,4,-3,-6,0,-5,2
,1,-5,-3,-2,-4,-3,0,-5
,-2,4,-12,-6,0,2,2,-1
,-2,-4,-6,-4,-2,1,-3,-1
,-3,-2,-10,-4,-3,-2,-5,-2
,-4,-1,6,14,2,-2,3,1
,0,0,-6,-27,-10,-1,-2,-4
,-1,-3,2,18,-3,-4,-1,-1
,-1,2,-7,7,-4,-7,-3,0
,-3,-12,-56,-3,60,19,1,-1
,1,0,2,-7,-8,-1,6,1
,-1,2,3,10,3,0,-3,-2
,2,2,20,-7,-11,0,-1,1
,-2,-1,9,12,-12,-8,1,-1
,-2,-6,-18,-15,-1,-1,-1,-3
,-2,-2,2,2,0,3,2,0
,-1,1,-8,3,10,3,0,-3
,-1,-2,2,-2,-8,-1,-1,-1
,-1,-5,-6,-1,3,2,-3,0
,0,2,4,-9,-8,-4,-1,-3
,-1,0,0,5,1,-1,-2,0
,-1,-5,-5,-4,3,-2,-1,-1
,-2,0,-4,-4,3,1,0,-2
,-1,-2,8,-2,-8,-5,0,0
,-1,-2,0,5,-3,-2,-2,-4
,0,-3,-6,-6,9,3,1,0
,-1,-3,-4,-3,6,10,1,-3
,1,0,0,-13,-10,-5,0,0
,-2,0,10,50,14,4,0,1
,0,-2,-11,-28,6,3,0,-1
,-2,0,-3,15,-3,-3,-4,-1
,0,-2,-5,-21,-4,0,-1,-2
,1,-1,1,-14,-12,-2,0,-2
,-3,-1,7,8,-8,0,-2,-1
,0,-1,-2,-9,-2,-3,-1,-1
,-2,-1,4,7,-2,-1,0,-1
,0,-2,0,-7,-1,-2,-1,0
,-2,-1,-3,12,-1,-4,-1,-1
,-1,-1,-4,-3,0,1,-2,-1
,-1,-1,4,-2,-9,-3,-2,-1
,-1,-2,-2,0,1,-2,1,-1
,-2,-2,2,-5,-4,-3,-2,-1
,-1,0,-9,1,0,-2,-1,-1
,1,2,11,-11,3,4,2,1
,0,-2,-2,15,0,-7,-1,0
,0,-1,-11,-16,1,7,1,-1
,-2,0,5,-17,-12,-3,-1,0
,-1,-2,-6,14,-8,-7,-2,-1
,-1,0,-5,-2,10,3,1,-1
,-2,-1,2,4,0,-5,1,-1
,0,-1,5,6,4,1,-1,0
,-1,-1,2,-13,-5,-3,-2,-2
,0,1,-2,4,0,-2,1,0
,0,0,-7,-7,-1,1,-1,-1
,0,-2,-4,5,0,1,-3,-1
,-1,-1,3,5,1,2,2,1
,1,-1,1,-5,-6,-2,-3,0
,-1,-2,0,2,1,-3,0,-1
,-1,-1,1,9,3,0,1,-1
,-1,0,-3,-13,-9,-3,-3,-4
,-1,-1,0,-13,-1,2,2,0
,0,0,-3,9,2,2,0,0
,1,0,4,6,10,0,0,0
,-1,-3,-8,12,-1,-5,-3,-1
,-1,-2,-3,-19,-11,-2,-2,-2
,0,2,3,16,0,0,-3,-2
,-1,-1,-1,4,6,0,0,-2
,-2,-2,-7,-2,-3,1,-1,-1
,0,0,1,2,3,-3,1,1
,-1,-1,0,-26,-9,-4,-2,-1
,-1,-2,-9,-6,-10,-2,-2,1
,-1,-2,4,14,7,0,2,0
,-2,-4,-7,-5,-5,-2,-2,-1
,-2,-2,10,14,6,0,-1,-1
,0,0,9,-34,-10,-2,-1,-2
,-1,-1,-20,13,-3,0,0,0
,-1,-4,-4,-12,5,3,-1,-1
,1,7,34,-13,-2,-2,-2,-1
,-2,-6,-37,0,-3,-2,-1,-2
,0,1,22,-3,-3,2,1,1
,-1,2,0,5,0,-4,0,-2
,-3,-25,30,-1,-3,1,-2,-1
,0,26,-15,-18,-5,-3,0,-2
,-4,-6,-23,1,1,0,-1,-1
,-2,-9,1,-2,-1,-2,0,-2
,-1,8,9,9,1,-4,-4,-2
,1,-8,20,11,1,-2,0,1
,0,-2,6,-8,0,-2,-1,-1
,0,18,10,4,2,-2,0,-2
,-3,-10,-47,0,4,3,0,0
,-1,0,-2,2,-8,-2,-1,-2
,1,4,31,-7,3,-1,1,-1
,-2,-16,-6,6,-6,0,-2,0
,-3,3,-18,16,13,0,0,-1
,-5,-11,-7,-6,-5,3,-3,-2
,-1,1,-9,-7,-5,-2,0,0
,-1,9,25,-3,0,-5,-1,0
,1,-8,11,2,4,5,0,0
,-2,-3,-18,5,5,5,1,-2
,0,-11,-30,-7,-6,-3,-2,-1
,0,2,3,5,-11,-3,-1,1
,0,15,-31,-7,-3,-7,-2,-4
,2,-13,14,1,7,1,1,0
,2,9,23,4,-1,0,-2,-1
,-4,-2,1,6,6,-4,-2,-3
,-2,-40,-17,-14,-16,0,1,1
,-3,35,47,0,1,-1,-2,-2
,-1,0,-37,-5,0,-2,-2,-2
,4,11,-7,10,4,1,0,2
,-2,0,3,-13,-6,-5,2,-1
,-2,-24,-63,-8,-3,0,-2,-2
,1,2,28,7,4,-2,1,0
,-5,-11,12,-6,-2,2,0,-1
,2,5,-8,4,-1,0,-1,-1
,3,5,12,-5,-8,-6,-1,-1
,-3,6,-4,-1,-1,0,-1,-2
,-3,-15,2,-3,-6,-5,-4,-3
,1,19,0,1,2,6,0,1
,0,-24,32,11,0,-5,-1,0
,-3,20,-15,-5,-2,0,0,-1
,-3,-8,0,-2,1,1,-2,-2
,0,3,-13,-5,-4,-3,-1,1
,2,0,5,-3,-4,-3,-1,1
,-2,-4,27,9,5,2,0,0
,0,-12,-62,-9,-1,-3,-2,-2
,0,17,8,5,2,-1,0,-3
,-3,-16,-27,2,-5,-2,-3,-2
,2,-1,54,-5,-2,-4,-1,1
,-1,5,2,1,4,4,2,0
,-1,-3,-17,-5,0,0,-1,-1
,-1,10,25,-4,-3,0,2,-2
,0,0,14,3,-4,-2,-1,0
,-3,-2,15,6,-4,-5,-3,-3
,2,-5,-5,-11,4,6,-2,2
,0,-16,48,2,3,1,-1,0
,-3,18,1,13,8,3,-1,-1
,3,2,-26,-1,-1,-1,0,2
,-1,-9,22,9,-9,-9,-2,0
,-2,-1,2,-1,1,-4,-1,0
,0,-10,-4,-25,-2,4,3,0
,3,2,7,7,-10,-7,-3,-2
,-4,4,28,-24,0,4,0,0
,2,4,-44,10,12,2,-1,1
,0,-8,-34,9,-7,-7,-3,-2
,1,6,30,-14,-7,1,0,1
,-1,-3,-33,-7,2,-1,0,-1
,-1,6,-2,2,-3,-5,-1,-3
,-4,-17,-31,-7,-3,0,-2,-2
,0,0,-39,-10,-4,1,-2,1
,0,9,87,26,-14,-5,-4,-4
,0,2,54,-15,18,7,1,2
,-4,-24,7,-22,-4,-1,-2,-2
,-1,4,54,10,-7,-1,-1,-1
,-2,-1,27,9,4,-2,-1,-2
,-1,6,10,14,0,0,0,0
,0,6,68,22,-12,-8,-4,-3
,-1,-3,-41,-21,10,4,0,0
,-3,-11,-93,-13,-6,-4,0,-1
,-3,0,-57,-9,0,4,1,0
,4,9,11,7,2,-1,-1,1
,-5,-10,-39,-19,2,1,-2,-5
,0,-5,-32,-15,0,4,7,0
,-2,-3,-15,3,-9,-11,-8,-3
,-4,-1,47,6,-6,2,-7,-2
,-1,5,17,9,-2,-14,1,-1
,-2,-11,-97,-13,14,13,4,1
,1,2,4,-8,-12,-3,7,-1
,4,3,-7,7,4,3,-3,1
,0,-8,-5,8,-2,-4,-7,-1
,1,5,4,-3,2,-4,0,0
,-2,-1,14,12,-5,-2,3,-3
,0,-1,-14,0,8,1,4,-1
,-4,-13,-91,-48,-2,8,-5,-1
,0,2,5,16,-3,-7,-5,-1
,0,2,63,3,-5,-2,-5,0
,-4,-15,-78,-14,5,-4,4,0
,1,14,96,35,3,-2,-7,-3
,-4,-9,36,-12,-3,-2,-2,0
,-3,1,-32,-14,-8,-4,-24,-5
,3,4,7,7,4,21,43,5
,1,4,52,12,1,-12,3,-1
,-1,-16,-50,-19,-6,6,3,2
,1,4,49,-2,1,-3,-4,-1
,-1,4,25,-9,-5,-13,-20,-5
,1,-12,-83,-10,2,7,6,1
,-1,6,67,27,-1,-10,-3,-4
,4,5,73,28,14,6,0,4
,-9,-22,-66,-67,-19,-7,3,-6
,4,8,45,-5,-5,0,-7,2
,-1,7,18,19,2,-5,-9,-2
,-4,-9,39,-1,-7,-1,1,-2
,2,7,3,21,11,-6,-29,-1
,-2,-3,0,6,3,9,14,2
,2,2,-51,-15,-4,12,14,-1
,-1,-1,-80,-12,-2,0,6,-1
,0,5,41,16,-6,-14,-22,-2
,-7,-11,-40,-16,-3,-7,-14,-5
,4,13,50,12,6,7,15,5
,-4,-6,-54,-13,-6,-3,7,0
,-2,-2,-16,-3,0,-1,-2,-1
,2,7,40,21,6,6,-3,2
,-3,-8,-18,-5,-2,-6,-9,-3
,0,-1,-41,-12,-3,-1,5,0
,1,3,2,4,0,1,6,-1
,-3,-6,38,6,1,-1,4,-1
,-1,11,-7,-1,-3,-2,-18,-3
,-3,-19,-67,-17,-2,-10,1,0
,1,6,6,5,0,3,-12,-3
,2,5,0,2,0,6,5,5
,-1,-1,10,6,1,-3,2,-1
,0,8,25,-1,-2,-2,-4,-2
,-1,-14,18,-4,-1,1,9,1
,0,3,13,0,-1,-2,1,-1
,-4,14,123,31,-3,-7,-7,-3
,-3,-29,-40,-11,-1,1,0,-2
,0,7,-6,1,2,1,5,1
,0,1,-1,-1,0,0,-4,-3
,3,3,18,-4,2,-1,-2,1
,-2,4,16,5,0,3,2,0
,-3,-5,6,3,-6,-2,0,-2
,1,1,-51,-10,-2,-1,0,0
,-4,3,72,19,-6,-7,-2,-4
,-1,1,-85,-21,17,8,1,-1
,-1,-2,-6,-15,0,3,2,0
,-1,4,5,0,-5,-2,1,-3
,-1,-12,-37,-8,-6,-5,0,0
,0,6,31,7,-4,-3,-4,0
,3,-1,16,-2,-6,1,4,2
,-3,-4,5,9,5,3,0,-2
,-3,-5,-6,-11,-1,-1,-2,-2
,0,3,23,1,-7,-4,-3,-2
,0,1,-39,0,4,1,4,0
,-1,-6,9,-9,-6,-5,0,-3
,0,-2,27,13,3,2,-2,-1
,-2,0,-75,-17,-2,0,-4,-2
,-1,-2,38,0,-7,-2,-1,-3
,-1,1,0,20,1,-3,-2,-1
,1,-7,-29,-35,0,2,-2,1
,-1,1,49,16,-1,0,1,-2
,1,0,-20,3,6,0,4,0
,-1,-6,-12,2,-1,1,-2,0
,1,0,1,4,-4,3,8,1
,-4,5,18,1,-5,-5,-10,-2
,-3,-4,-10,0,-6,-1,-2,-1
,-1,5,10,10,6,2,3,-2
,1,-5,14,-4,0,1,4,2
,2,2,4,-2,-3,0,5,0
,-1,3,0,8,2,-4,-3,-3
,0,-1,7,-8,-8,-7,-6,-2
,-1,-2,-28,2,6,3,-1,1
,-1,-1,4,-1,0,0,-4,0
,-2,-7,-46,-5,3,1,1,-1
,-2,5,31,-2,-2,-2,-1,-1
,-1,-2,-25,-6,-2,-2,-8,-1
,2,3,38,10,0,-2,-1,-1
,-1,-3,-16,-4,-3,2,5,3
,1,0,1,7,6,4,2,0
,-4,-6,-44,-31,-4,-4,-4,-3
,-3,5,32,18,-4,-8,0,-2
,0,-4,-18,-24,-11,3,-4,-3
,-1,1,0,6,6,4,-1,0
,-1,0,8,27,6,-2,1,-1
,2,0,27,14,7,1,0,0
,3,-5,-19,-54,-11,-9,-2,0
,-1,1,-8,12,-8,-1,0,-1
,-1,2,12,5,0,0,-2,-3
,8,3,25,-8,-4,1,0,0
,-17,5,-2,0,-6,-8,-5,-1
,-4,-8,-48,-21,7,1,0,-3
,-5,-12,-4,19,-2,-2,-6,-5
,-3,-10,-14,17,3,2,-9,0
,4,12,6,22,6,-14,26,0
,3,-5,-21,-33,-15,-11,-65,-6
,-7,6,1,-2,7,23,28,1
,2,2,-6,-9,3,17,23,6
,0,-3,31,19,3,1,-11,-2
,-3,-4,8,4,-3,-17,9,-2
,5,-2,7,-6,-4,-12,-13,-1
,-3,0,-49,-23,-3,-1,-7,-1
,0,0,27,14,5,5,1,0
,2,-4,-9,0,0,2,9,1
,-1,4,-22,-11,-6,-5,-7,-1
,-5,-4,-4,0,-2,-3,7,-2
,0,-1,-2,9,3,1,-8,-2
,1,-2,2,-1,0,2,8,1
,-2,-3,9,-6,-6,-6,-5,0
,-1,-2,-79,-14,-2,-2,-2,0
,0,-5,28,8,0,0,-8,-2
,1,7,31,-1,-4,5,7,2
,0,3,-17,2,4,0,4,0
,-2,-3,50,3,-2,-5,-6,-4
,1,-3,-75,-9,0,3,0,1
,0,0,17,-3,-3,2,9,-2
,-2,-1,12,29,-6,-10,-8,-4
,0,1,3,-31,14,4,-1,1
,1,-2,-13,2,5,3,-3,0
,-2,-4,0,-2,-7,-3,5,2
,-2,-2,6,-13,-2,-3,-4,-3
,0,1,-2,34,0,-3,-1,-2
,-2,2,30,-2,-2,-1,0,-1
,1,0,7,-1,1,1,2,1
,1,2,-12,0,2,1,2,0
,-2,-3,27,-9,-11,-5,1,0
,0,1,-23,-1,1,1,-4,-1
,-3,-2,-10,0,-2,-1,3,-1
,1,-6,-38,-12,2,-1,-3,-1
,-1,2,28,7,-2,-1,0,-1
,-1,-2,18,-3,-2,2,0,1
,-1,1,5,4,1,1,0,0
,-3,-5,-12,-3,0,-2,-3,-2
,-2,-1,-13,4,1,1,0,-1
,2,-2,-22,-21,-1,-1,1,1
,-4,0,-16,-13,-6,-3,-3,-1
,-3,-3,20,6,-1,-7,5,-1
,3,-1,49,8,3,4,-11,-9
,-2,-2,-11,-11,-1,6,12,8
,-16,-5,75,9,-6,-10,-11,-28
,0,4,20,1,3,8,14,12
,-5,-2,-29,-4,0,0,5,-19
,4,1,17,5,-1,-3,6,1
,-1,3,36,12,-1,-5,10,4
,4,5,24,1,-3,0,-1,-5
,2,-4,-43,-4,-1,-1,5,6
,-3,-4,-46,-21,-6,-3,-5,-7
,0,-2,-4,1,-2,1,-5,8
,-1,0,16,12,5,1,-4,-2
,-1,0,-9,8,0,1,6,3
,3,3,46,-5,-2,2,-5,-2
,-5,-1,-60,-20,-4,-3,-1,-2
,0,7,54,16,6,-2,-7,1
,-1,8,76,26,1,-20,-4,2
,-6,-4,-45,5,-3,8,-48,-10
,7,4,47,-6,3,24,36,12
,-4,-8,-15,5,-1,-4,3,-2
,3,-6,-69,-16,-2,-2,3,3
,-2,0,5,3,-5,-15,2,-4
,3,-3,-61,-17,-4,-6,-21,-2
,-7,3,-6,4,0,2,-1,-10
,-1,-6,15,-1,-1,4,0,8
,-1,-4,76,-4,-2,-5,4,-6
,0,-1,7,-12,-1,8,17,-40
,5,1,-8,-2,1,1,-8,15
,-2,-1,21,-1,-3,-6,-5,-7
,4,-5,-12,-6,-4,-9,-25,4
,-3,0,-46,-7,2,13,6,11
,-2,-1,-89,-12,-3,1,22,-1
,-7,-2,125,28,-3,-8,-3,-2
,2,5,-7,-3,-1,-3,-6,-3
,0,-5,-36,-7,1,2,7,6
,3,-8,-38,-6,-2,-7,-8,-4
,4,6,12,-53,-9,-3,-3,2
,-5,-4,3,-4,-5,-5,-1,-1
,5,4,16,18,9,1,-7,1
,2,-7,-54,-11,-4,1,8,-3
,-2,-2,5,27,6,2,-5,4
,-4,1,24,-7,-6,-4,-2,1
,3,0,18,11,12,5,2,2
,1,-4,-59,-56,-10,-2,7,-4
,-5,2,7,62,9,-1,5,6
,-4,-3,2,-42,-9,0,0,-4
,0,-6,9,-14,-5,-2,-8,1
,-2,3,15,39,0,-2,14,-3
,-8,4,8,-11,7,2,-6,-2
,4,-3,65,24,3,-2,-10,-2
,2,-1,-63,-18,-2,0,-1,3
,-2,2,-18,18,-2,1,2,-2
,-2,2,50,-18,-6,-3,-2,1
,5,4,-7,-2,-1,5,14,1
,-4,-2,114,30,-3,-9,-14,-4
,2,-5,-30,-45,-5,3,-3,1
,4,6,70,-2,-1,-2,-6,-2
,-6,-8,-95,-14,-4,-5,-19,-3
,-5,-6,-20,-20,-8,-3,-3,-2
,1,-1,14,8,-4,2,33,-2
,-2,1,7,0,3,13,-16,1
,-1,5,67,27,3,0,17,1
,1,0,-4,14,7,0,-10,-2
,-1,-1,52,-9,-7,-7,-11,0
,-4,-6,-59,-17,-8,-8,-9,-4
,-4,-2,45,-11,-1,-5,-1,-2
,-1,3,-30,0,6,-7,22,3
,-4,-6,-38,0,4,26,-15,-3
,1,-3,-25,-5,-4,-9,13,-1
,-3,4,17,-6,-4,1,-7,-2
,3,5,18,1,-1,-6,-14,-2
,0,-10,-55,-12,-4,-1,5,1
,-5,-2,12,0,-6,-1,6,-2
,2,4,-58,10,4,-2,-5,-1
,-3,-10,11,-22,-4,-4,-14,-1
,0,0,14,6,1,-4,4,0
,-1,-3,-3,1,-5,1,14,0
,-4,-3,-41,-13,-1,-2,-1,-1
,5,1,12,10,7,3,11,1
,-1,1,58,4,-3,0,-2,-1
,-2,0,-23,-1,-5,-11,-10,-1
,3,1,10,-3,0,-3,-10,-1
,2,4,26,9,-1,15,24,5
,-7,-13,-59,-26,-8,-3,-8,-5
,0,2,14,6,2,3,6,-2
,5,9,41,16,3,-9,4,1
,-4,-11,-34,-23,-8,-4,4,-1
,-6,-4,17,6,-3,-1,5,1
,0,4,-3,-3,0,0,-21,-5
,2,0,34,4,2,3,-7,6
,5,2,-28,10,1,-2,0,2
,-11,4,21,-2,2,8,19,-12
,1,-6,-32,-9,-5,-7,0,7
,-3,4,24,9,-1,-7,0,-7
,1,0,-18,-5,-1,3,-12,2
,5,-6,-30,-11,-3,-2,-4,10
,-10,-17,-59,-33,-4,13,24,15
,10,8,54,14,6,5,9,17
,16,3,3,0,2,0,10,24
,-12,3,8,1,-2,1,2,2
,-8,4,48,12,1,-6,-9,-14
,-10,-6,10,5,-1,-6,-12,-20
,-2,-13,-30,-12,-5,-7,-9,-11
,0,0,-4,-8,-1,8,12,6
,-3,6,57,3,-3,0,0,-5
,0,-3,6,-2,-1,-3,0,4
,0,-4,-24,-3,-2,-15,-20,2
,3,11,53,15,1,11,-4,0
,-3,-4,-36,-6,-1,9,24,-9
,-9,-16,-47,-27,-6,2,-4,0
,3,-1,-1,7,0,-5,6,2
,3,1,10,5,1,-9,-4,-3
,-2,7,48,8,-1,-1,-10,-5
,2,-4,-51,-6,-2,-1,4,10
,3,2,-36,-13,0,-2,4,-3
,-3,-5,12,4,-3,1,-10,6
,2,3,33,18,1,7,10,21
,1,0,18,-5,-1,0,12,12
,0,1,5,0,-4,-12,-6,-18
,2,0,13,8,0,-6,-26,8
,-2,0,-4,-2,0,17,28,-8
,5,2,-14,-1,4,5,4,15
,-9,-3,-17,0,-3,-6,-3,-4
,6,0,6,-3,-3,-5,2,-4
,-4,-1,8,7,0,0,-7,4
,-2,2,8,-2,0,-5,0,-10
,2,2,35,2,2,-4,-5,8
,-5,-8,-16,-13,-5,-3,-3,-34
,1,2,8,5,0,1,-6,-7
,2,-5,-42,-13,-4,-8,-5,-1
,-4,-3,13,6,-1,-2,3,8
,6,5,14,2,0,-6,4,7
,-4,6,31,3,2,15,8,-18
,-5,-11,-81,-17,-2,2,-3,7
,-3,-7,-20,-14,-6,-5,4,-46
,5,6,23,8,-1,4,-5,12
,-1,1,-9,4,-1,-2,-8,-1
,-1,-2,-20,-7,-3,-4,1,-5
,-1,-4,-14,-3,-1,-3,2,12
,-2,-1,25,5,-1,-4,-2,1
,0,0,-19,-1,-2,-3,4,6
,-5,-2,2,-2,1,-2,-11,-13
,-1,1,-20,2,1,3,-3,5
,4,5,65,12,2,-4,-6,-9
,0,-3,5,7,-1,-7,-11,-4
,0,3,-5,-9,-1,4,3,-5
,-2,4,50,5,-2,0,8,3
,2,-4,-18,-6,-3,-10,-23,9
,-2,-2,-46,-6,-1,1,5,-5
,-19,-10,-35,-2,-1,3,3,-30
,-4,-3,3,0,-1,1,2,4
,2,2,21,3,-2,3,1,-2
,7,4,49,7,-1,-15,-23,15
,3,-1,-14,-6,-2,-4,-22,4
,1,2,9,-1,-1,-8,-4,0
,0,-2,6,0,-2,1,7,2
,-1,-1,-5,-6,-3,-3,-19,1
,1,10,58,17,1,4,9,-4
,-3,-4,32,3,-2,-3,-13,-1
,0,-7,-71,-14,-3,0,21,2
,-1,3,19,10,2,2,-18,9
,-4,-1,20,-1,-2,-8,5,-6
,5,4,9,2,3,13,9,-13
,1,-2,21,1,1,1,10,8
,-3,-5,-25,-7,-3,-11,-10,4
,1,7,35,9,2,-4,12,1
,-4,-8,-28,-10,0,1,-4,1
,0,-2,21,4,-1,3,15,-5
,1,0,0,-1,0,0,-8,2
,-3,-2,-5,-10,-4,-4,-6,-2
,8,2,20,-1,-1,-7,-2,4
,-2,-1,25,2,-1,-1,-1,-7
,-11,-1,-6,0,0,-3,5,-5
,1,0,1,5,0,-2,-1,-6
,-6,-7,-9,-16,-4,3,13,4
,6,-3,14,6,-1,-26,-9,19
,8,2,-26,-1,-2,17,-10,-9
,-4,3,25,5,2,10,13,-2
,3,-3,3,-1,-2,-5,-5,3
,-3,-2,-21,-4,-6,-7,-23,3
,-2,-2,3,4,0,-17,4,-1
,-3,-3,-12,-8,-2,10,13,-4
,-4,1,4,4,-1,1,-11,-4
,0,-8,-39,-20,-1,5,14,-4
,3,-2,-14,-1,0,-2,3,3
,0,5,13,10,2,0,-5,-1
,-5,-4,-25,-9,-4,-5,-7,-7
,9,4,6,9,1,-2,5,8
,-13,-4,10,-6,0,9,9,-9
,-4,-6,-18,-7,-2,-2,-11,-8
,0,2,-18,-2,0,9,14,0
,-2,1,23,-2,-3,-20,-27,-3
,7,7,53,16,1,12,19,5
,-2,-1,16,1,1,9,14,-1
,-1,-5,10,-7,-3,-1,-3,-1
,-4,1,19,4,0,3,14,1
,0,0,-16,-3,1,-5,-15,-3
,-6,-4,-9,-7,-4,-4,6,-4
,1,1,-19,-1,-1,-5,-16,0
,0,0,-10,-1,-3,2,8,-1
,-2,-1,8,-5,-3,-7,-7,2
,-4,-3,-10,-1,-1,5,7,-5
,2,2,16,0,0,-4,-15,-1
,-1,-5,-75,-6,0,-2,-3,1
,2,-2,-19,-1,-2,-14,-11,-1
,1,6,44,8,2,17,6,12
,-3,1,-8,1,0,-2,12,-19
,-1,-5,-40,-5,-4,3,-5,2
,5,-4,-11,-2,0,-3,12,9
,-12,-2,4,-4,-4,-16,-63,-20
,-7,-1,-21,-10,-1,4,20,3
,0,-2,-7,1,-2,1,-10,0
,-1,1,-8,13,1,-4,4,5
,4,6,42,1,0,4,29,-2
,4,4,-17,-4,1,8,9,13
,1,-1,6,1,0,-10,0,-5
,4,-5,9,3,-1,6,12,0
,4,2,-59,-14,-3,-11,-13,22
,-3,-4,-24,-3,-1,5,15,-8
,-4,3,50,9,0,0,-16,8
,6,11,-20,0,-1,-3,-11,-11
,4,-14,28,1,-3,-1,6,-34
,4,-3,-37,-6,-4,-4,2,27
,-2,4,8,4,-1,-4,-21,19
,-5,11,41,3,-3,-7,-14,-22
,-8,-16,-38,-4,-3,-2,-3,-21
,-1,-3,19,5,0,5,11,5
,-4,4,-9,-3,-1,-7,6,19
,-6,-5,-24,-18,-2,-3,-8,-1
,5,1,-18,-1,1,-6,-10,-1
,-5,-3,16,0,-2,1,6,-20
,-1,4,12,5,2,11,15,23
,-1,-1,11,3,-2,-6,-2,-10
,3,2,1,-4,-3,2,-1,0
,-2,-9,-28,-8,-2,-3,0,-3
,1,0,-24,2,1,4,7,-6
,-2,-3,1,-6,-3,-7,-36,-4
,-1,1,12,6,-2,-3,11,7
,1,5,22,11,3,7,-6,-6
,-3,-5,15,-7,-6,-8,-7,-3
,0,-3,-1,-4,-1,0,6,-6
,-3,-3,-24,-3,-1,-3,-4,8
,-2,-8,-3,-2,0,2,-3,-3
,0,2,-5,1,-2,-1,11,-1
,-1,-1,2,5,1,5,3,-1
,-1,-3,8,-4,-1,4,12,13
,-1,-1,0,0,-2,-6,-2,-24
,-1,-2,-19,-5,-2,-7,6,6
,2,0,3,-1,-2,0,4,3
,4,2,-7,-1,-1,-8,-20,-2
,-3,3,10,5,3,5,10,4
,-3,-5,-27,-8,-4,-4,-18,2
,1,0,-4,14,0,-1,18,-3
,-4,-4,-22,-17,-4,7,31,-2
,3,-3,-37,-7,1,0,-22,6
,-3,1,65,7,0,-2,-10,-6
,1,4,22,12,-1,-3,1,1
,-1,-4,-19,-7,0,-8,-15,-5
,-3,5,95,16,2,-5,-15,-5
,-1,-4,-46,-36,-8,0,6,0
,-6,-4,-10,-5,-3,-7,-3,-9
,3,0,5,-2,1,-3,-4,6
,-6,-6,10,11,-5,-3,-11,-3
,3,14,25,28,7,1,-1,-4
,0,-9,-50,-16,-5,-8,-2,20
,-4,-2,-25,3,-1,-3,6,-19
,-3,-6,-22,-20,-3,-1,-5,-3
,0,1,18,11,3,4,-2,2
,0,-2,-37,-14,-1,4,-4,-1
,1,2,18,5,0,1,-2,-2
,-3,0,24,19,-1,1,2,0
,-2,-1,11,-15,-3,-2,-7,1
,0,0,0,-4,-1,-2,-5,-2
,0,-2,-5,0,0,-1,4,3
,4,2,-26,-3,4,1,1,-5
,5,1,-10,7,-2,-3,-4,5
,-12,0,-14,-2,-3,-2,0,-8
,-1,-3,28,5,-1,0,2,4
,3,2,-11,-9,1,1,2,-1
,-2,-4,0,2,-1,0,-2,-6
,1,1,8,4,-2,0,-2,0
,-7,-4,-9,-9,-1,-2,6,-3
,2,-2,-5,0,-1,4,3,13
,-11,0,9,4,-2,-5,-6,-18
,2,-1,-5,-4,-1,2,32,-3
,1,4,28,4,-1,-5,-49,7
,1,-1,-35,-11,1,9,12,-16
,5,-3,-7,1,-1,-6,4,17
,8,-3,13,0,-6,-11,-5,11
,0,-2,-24,-4,-1,-2,-6,1
,-3,0,33,3,-3,-13,6,2
,3,-3,-20,-3,3,12,-13,4
,-9,-3,-80,-5,-3,-9,12,-2
,-1,-3,-1,-10,-3,0,7,-3
,4,1,-1,6,3,1,-5,-6
,-2,-1,3,2,-4,-11,-9,3
,4,-1,7,-5,1,0,-5,3
,-1,0,-3,8,0,3,8,6
,0,1,21,1,-1,-6,-22,-2
,-1,-2,0,-3,-1,12,14,-3
,4,-2,-7,-9,0,-3,-15,8
,-7,2,14,8,0,4,-9,-22
,5,0,28,2,-2,0,22,16
,1,-1,7,10,-2,-2,-8,-17
,-6,3,13,11,0,2,1,3
,-1,-8,-66,-15,-4,-6,1,-4
,-4,-2,-17,-6,0,-3,-14,-8
,5,4,43,3,-1,0,-2,6
,-2,-2,-22,-5,2,6,0,-2
,1,3,40,6,0,-3,-4,0
,-4,-2,-17,-4,-3,-4,-2,-5
,1,3,12,2,-1,2,3,5
,-3,-4,-8,-4,0,9,-3,-5
,-3,-3,-22,-5,1,-3,-1,-2
,-6,-3,-1,-1,-6,-20,-24,-11
,7,4,14,2,1,20,15,11
,1,0,17,0,-2,-2,2,6
,-3,-5,-52,-8,-3,-8,-17,-24
,-4,-3,-2,-2,-2,0,-15,-3
,-2,-3,-11,-7,3,11,12,15
,0,-2,19,1,-2,-7,-6,-25
,-1,-1,3,-1,-2,-1,-1,-4
,-1,3,14,3,-1,-5,-3,-2
,6,-2,-22,-4,-1,-6,-4,8
,-10,-4,3,0,2,4,6,-2
,-1,0,3,1,-2,-3,-17,3
,0,-1,23,5,0,-8,-1,-6
,1,-1,17,-3,1,3,-7,0
,0,-1,-11,-5,-1,1,7,0
,-3,0,2,0,-3,-6,1,0
,1,-4,-25,-10,2,-1,-1,-2
,-1,1,7,1,-1,3,-2,-1
,-1,-2,-3,3,-1,5,1,0
,-3,-1,30,4,-1,-1,-7,-2
,1,-2,-40,-7,1,1,2,1
,-2,-1,39,4,0,-8,-1,-4
,1,-2,-12,-2,-1,2,21,3
,-3,0,-13,-2,-3,-8,-26,8
,-2,1,-3,-5,-2,1,6,-12
,0,-1,8,2,-1,0,8,1
,2,-1,-17,-8,1,-2,-21,9
,-4,-4,-9,1,-4,-8,5,0
,-3,-2,6,-1,-1,4,18,1
,-3,-2,-12,-3,-1,5,5,0
,0,4,22,0,1,7,3,5
,-2,-8,-31,-10,0,0,1,-4
,-1,3,-1,1,-2,-5,-14,0
,-2,0,9,0,-3,-2,5,-6
,-6,-2,12,5,-1,0,-3,-6
,0,-1,-15,-4,0,2,0,-1
,-1,-5,8,0,-2,-3,4,12
,2,3,-2,-5,-3,2,2,-8
,-5,-1,-5,1,3,2,-18,-6
,-1,0,-16,-3,-2,-13,-22,-5
,0,1,23,4,-1,8,21,1
,7,1,-7,-1,1,6,16,14
,-3,-2,60,1,-1,0,-4,7
,-7,-3,0,5,-3,-2,-6,-25
,1,4,16,1,-5,-7,-20,0
,-1,-1,-7,-2,0,-10,2,9
,2,-4,-3,-4,-3,-4,-5,-2
,5,5,7,2,-1,2,16,16
,-15,-6,-57,-9,-1,15,30,-32
,8,-2,-9,-2,2,-14,-21,6
,-7,0,-15,0,-5,10,-2,-28
,-2,1,28,2,3,0,-18,21
,12,-5,-17,8,-4,-13,13,40
,5,4,-5,-9,4,16,11,9
,0,5,6,11,6,26,76,-26
,-1,-2,3,-4,-1,14,16,50
,1,0,8,-1,2,-8,7,12
,-4,2,32,7,-4,-42,-32,14
,-1,-5,-11,-4,-4,0,-17,-58
,4,-7,-24,2,-3,-6,-10,20
,-3,1,50,-2,7,8,10,-8
,2,-11,-19,-11,-9,-16,-12,-26
,-7,0,22,6,-1,-6,-12,18
,0,5,8,5,1,13,3,-10
,-9,3,-18,-7,0,-8,-23,-3
,5,0,18,3,-2,0,20,-17
,-3,-8,-32,-3,-1,-2,-15,11
,-4,-4,-32,-7,0,9,23,-4
,-3,0,1,-3,-2,-6,-21,10
,-11,-2,38,6,-3,-6,-7,-15
,2,4,-1,7,0,1,-1,-1
,-6,-4,6,14,2,9,12,-4
,9,-3,20,-4,2,-3,-7,16
,-6,5,-15,-12,-5,-7,-4,-14
,3,-4,-33,-42,-9,-10,-18,5
,-2,-4,-22,22,4,0,3,-8
,-5,-1,5,-37,-4,3,-2,-1
,-1,-2,-1,13,-1,0,3,2
,3,0,-13,2,4,-7,-18,4
,-5,0,35,-4,1,9,6,-7
,2,1,6,22,-4,3,4,5
,-2,3,-4,-12,4,2,3,-4
,0,-2,-8,-7,-6,-4,-5,2
,-2,-7,-24,-20,0,-3,-1,-5
,1,2,-1,23,-2,0,-4,1
,-2,0,0,-12,-5,-4,-6,-4
,2,-1,-3,3,2,1,5,1
,-3,-2,-6,-7,-2,4,6,-1
,1,0,10,5,-1,-6,1,3
,-4,1,-1,8,0,2,-14,-7
,-1,-4,-32,-10,2,6,17,1
,-1,1,23,-1,-3,-10,-8,-5
,0,1,-37,-1,0,11,-28,0
,0,-5,1,-2,-2,-6,21,0
,-1,2,7,2,-1,4,3,-2
,0,1,-7,-2,-2,1,8,0
,-1,-2,0,-1,1,-8,-4,-1
,2,-1,-18,-5,-2,-3,-7,1
,2,1,46,-2,0,-8,3,-5
,-2,-3,1,3,-2,-3,-9,4
,-15,-10,-46,-7,-2,3,5,-13
,12,11,41,4,0,-1,-3,11
,-3,-9,-30,-5,1,5,6,23
,-4,1,6,8,-1,-2,5,-44
,5,0,-5,-1,-1,-4,-9,7
,-20,-3,6,-6,-5,-5,2,1
,-1,-19,-32,0,2,1,9,-6
,3,11,-2,-3,-3,-3,-7,-1
,-7,4,-7,-10,-1,-3,-3,-27
,8,2,36,11,1,2,3,51
,6,26,49,-5,-5,-3,-5,-20
,-12,2,-83,6,0,-2,3,-28
,3,-12,-3,-25,-5,-1,-3,-13
,-5,-6,-27,1,1,1,0,-6
,-6,5,40,4,-2,-1,-2,7
,1,15,14,0,-3,-3,1,15
,-1,23,-7,7,5,0,6,-6
,-4,-21,13,-1,-7,-3,-8,-5
,0,-8,35,13,-1,-8,-4,-15
,-3,25,-12,-6,-2,3,-4,-14
,-17,-3,3,0,-1,-3,-4,30
,33,6,11,-4,0,-2,-1,11
,2,-21,5,7,-2,-1,0,20
,-5,-1,2,-3,-1,-3,15,3
,-6,-6,-100,-15,-3,-2,-21,-28
,-14,0,6,-2,0,4,2,-2
,13,5,-8,-1,0,1,3,29
,-7,3,-2,-4,0,2,22,-6
,7,10,-5,2,1,1,-8,-3
,-15,-10,-27,-5,1,-1,8,-3
,-2,-6,11,0,0,-2,17,-3
,-3,1,3,2,-2,-3,-13,-12
,-2,-4,-15,-9,1,18,10,13
,5,-2,16,5,-1,2,-15,6
,6,8,15,3,-1,-4,11,-2
,-5,-8,21,0,-1,-6,-14,-4
,-5,6,-23,3,-3,-4,15,4
,11,-4,-16,-4,2,3,0,-8
,-3,5,19,7,0,-6,-8,4
,1,-2,6,-1,-1,-2,-6,-2
,5,-5,-29,-6,0,4,6,14
,-4,-4,21,-1,-3,0,1,-25
,0,5,-12,-2,-1,1,-6,-3
,-7,-6,9,2,-3,-8,-9,-6
,-1,-3,-3,-4,-2,-14,-3,-4
,-2,-2,-4,-5,-2,7,4,6
,-7,0,4,5,-2,2,-4,1
,16,4,4,7,-1,-2,2,4
,-9,-6,18,0,-2,-5,-7,-10
,1,7,-11,-4,-1,1,-7,1
,-5,-7,18,-3,-1,2,2,-1
,5,-2,-35,-5,0,0,1,-15
,2,-2,16,1,-1,-1,0,4
,-7,0,10,7,1,0,0,-1
,-1,1,12,3,0,0,5,-6
,-4,-2,-4,-5,-1,1,15,1
,1,0,-6,-3,-1,-3,-24,-2
,-2,-5,10,-1,-2,-2,-2,0
,-3,-4,-19,-6,-3,-12,-8,-10
,-1,-1,2,0,-2,2,-8,1
,-2,0,13,3,0,11,13,-8
,2,1,-17,-2,0,2,1,5
,0,1,1,-2,1,-3,-1,-5
,-5,-4,15,-1,-2,-6,-7,-3
,2,3,-5,3,0,-6,-3,2
,1,-7,-17,-4,0,1,-10,-3
,-3,3,38,5,-3,-1,2,0
,-2,-6,-55,-6,-1,2,6,13
,-24,-4,12,7,-2,-2,3,-30
,2,-1,-30,-13,-2,1,1,-3
,0,0,21,10,1,0,-4,5
,2,-4,-3,13,0,0,4,-2
,-4,-2,1,-13,-6,-3,-5,8
,9,0,-11,-29,-3,-1,1,-11
,1,0,3,13,2,1,-8,2
,-2,0,34,19,1,-2,-3,-2
,5,-3,-12,-11,-3,-6,23,3
,-11,1,4,9,0,-10,1,1
,-4,8,22,8,4,10,1,26
,29,1,6,0,-2,2,-2,11
,-12,16,5,-6,-4,-16,-37,4
,10,0,7,4,3,7,-7,15
,-13,4,-28,-10,-6,-9,-13,-43
,-17,-8,30,12,3,10,24,2
,-4,-6,-52,-7,-1,-9,15,3
,2,10,-1,-5,-2,8,-6,-11
,7,-7,-48,-7,6,-7,4,9
,-3,11,5,7,0,5,-10,3
,8,-6,-7,0,1,4,1,5
,-5,-11,11,4,-1,-1,-10,-5
,-1,0,36,22,-1,-5,-11,16
,2,-1,0,-23,-2,-3,6,1
,2,0,25,-5,-2,0,-7,-4
,-4,1,-27,-12,-9,-3,-8,-6
,-5,-8,27,39,12,-2,15,1
,-1,-3,-49,-56,-17,-6,-7,-6
,0,-1,10,21,4,6,0,0
,-2,2,11,8,-1,-10,0,-3
,-4,1,-14,12,5,7,1,-3
,5,-4,-4,-11,-2,-5,9,29
,-12,3,17,-26,-7,-4,7,-21
,4,3,2,18,0,-7,-25,-23
,3,2,26,-1,-3,-2,3,10
,5,-2,-10,10,4,-1,0,4
,3,-1,29,-12,0,6,17,15
,-6,-7,-48,-1,-1,-4,17,4
,2,-4,-25,5,-3,-3,-1,4
,-13,1,33,-4,-1,7,-13,-4
,23,1,14,-1,-2,-1,3,0
,-2,-4,-82,-12,-1,-5,-6,21
,-2,2,-24,-13,-3,-5,-25,-34
,-3,-2,30,10,0,7,23,-5
,-5,0,-4,-6,-1,-2,-31,-5
,-4,-5,-3,-6,-4,1,14,7
,3,3,-20,-1,-1,-6,-3,30
,-1,-3,22,5,-1,-4,-2,-23
,-3,1,46,-6,-5,0,20,11
,-2,-3,17,8,1,-4,-6,-27
,3,-4,-11,-4,-3,-3,1,-41
,-6,-4,35,16,3,1,-5,-1
,6,7,-27,-12,-5,-7,-8,20
,4,0,50,10,3,0,-1,-8
,9,-10,-88,-15,-2,5,0,47
,-32,-5,14,-1,-6,-7,12,-39
,17,16,51,11,6,4,-17,-6
,-22,-45,-92,-23,-7,-5,-12,-22
,-5,1,38,11,0,-5,8,9
,3,15,38,-3,-3,-1,1,2
,-7,8,52,12,1,0,-2,-17
,6,-6,-50,-10,-3,-4,-5,3
,-6,-4,6,-2,-1,-7,2,8
,7,1,31,16,1,2,-1,-8
,-5,3,0,-12,-3,-4,0,-3
,-2,9,9,15,4,1,-3,-5
,-5,-4,16,-11,-3,-2,1,10
,-6,13,19,13,1,2,1,-6
,-5,-25,-34,-10,-6,-3,-4,13
,14,27,-49,-16,-1,3,0,13
,-11,6,18,5,0,0,-1,-11
,27,-4,69,1,1,2,-1,18
,-13,-5,-58,-13,-2,-5,-2,14
,-2,9,30,7,-2,-1,2,-1
,-3,-4,9,5,4,-1,-1,4
,-5,-10,-19,-4,-1,-6,-4,-29
,-1,2,11,0,-1,2,7,9
,25,-9,-10,9,-1,0,-3,0
,3,7,-15,-8,-2,0,-14,-15
,0,-12,-13,-4,-1,-1,-2,-1
,-1,12,33,8,3,-2,2,-3
,-11,-19,-4,-6,-3,-1,2,19
,0,5,-14,-1,-2,0,1,-2
,-9,-21,-59,-10,-6,-5,-4,-8
,3,0,-18,-15,-2,-2,1,-4
,-9,8,4,4,2,0,-3,-3
,-3,-18,10,1,-1,-2,12,26
,-1,-3,-29,-9,-3,0,-26,-46
,-1,-2,-3,4,3,2,5,7
,1,-4,5,3,-1,0,0,3
,5,9,9,2,0,2,-1,14
,-6,0,2,-6,-2,-5,6,3
,-5,-3,16,1,-2,-2,-3,-21
,2,5,111,23,4,4,-3,0
,-2,7,22,7,-3,-1,0,-4
,3,3,-6,1,1,0,3,7
,0,-1,20,2,0,-1,-4,-16
,-3,-1,-27,0,2,0,2,8
,-3,-13,-17,3,0,-1,4,-1
,1,17,-33,-13,-6,-4,-4,-3
,0,7,29,8,2,-1,-3,-3
,-1,8,-2,-5,-1,0,1,1
,-3,-12,-48,-7,-2,-2,-2,3
,-1,-2,13,6,2,2,-1,4
,8,1,-27,-10,-1,-2,-1,2
,-11,-7,-30,-10,0,3,0,-3
,-1,5,2,6,0,-3,-1,4
,-3,-6,13,3,0,1,1,3
,-3,0,19,3,0,-2,-1,1
,4,-7,0,-1,-1,1,0,9
,-3,8,-31,-5,-2,-1,-4,-14
,-5,5,-2,-1,-1,-1,-3,-2
,0,-23,-3,-3,-1,-1,0,-1
,5,3,9,4,-1,0,0,-11
,-1,12,41,0,-2,-1,-5,-2
,1,-13,-43,-11,-2,-1,-2,0
,-2,1,19,6,0,-1,-1,-15
,-3,-6,-48,-6,-1,0,-2,19
,6,2,-34,-2,2,0,3,13
,-16,-17,57,2,-3,-1,-2,-28
,2,10,-40,-1,-4,-4,-8,-7
,-3,1,-19,-1,1,3,1,12
,1,0,-10,-1,0,1,0,-17
,0,1,-13,-5,-1,-1,-1,9
,-5,-12,3,-5,-3,-2,-5,-4
,0,5,-45,-3,1,1,-1,6
,1,-4,27,-1,-1,-2,0,-2
,-4,0,-16,-2,0,-3,-3,-8
,-9,18,13,-2,0,-1,1,0
,1,-21,5,5,0,1,2,4
,1,4,-47,-5,-2,0,-1,-7
,8,4,6,-6,0,0,-1,9
,-7,-6,35,6,-2,-1,-1,-2
,0,18,-47,-8,-2,-2,-1,-8
,1,2,7,-4,-5,-3,-1,1
,-2,-5,-23,1,2,0,0,20
,-4,-7,15,-4,0,0,-2,-27
,-8,-6,2,-4,-5,-3,-6,-25
,14,6,21,3,1,-1,2,21
,2,6,-1,1,-1,-2,-2,11
,-1,-6,-44,1,1,-2,0,4
,7,-7,-27,-13,-3,-3,1,10
,-30,-3,-10,1,-1,-2,-2,-23
,-9,-1,46,10,0,-1,-7,-12
,10,-1,-53,-13,-1,0,0,11
,-3,3,57,11,-1,-2,2,5
,-7,-5,32,3,-1,0,-2,-22
,1,1,17,1,-2,0,-1,7
,3,-5,12,11,2,0,0,-1
,-1,15,-27,-13,-2,-1,-1,-4
,0,-11,-61,-1,0,0,0,11
,-6,4,46,-2,-4,-2,-1,-15
,2,1,-4,8,0,0,0,10
,-1,-9,40,-6,-2,-3,-4,-16
,17,8,42,5,0,0,0,-2
,2,-16,-74,-21,-6,-3,-1,0
,-3,3,-4,2,1,2,0,-4
,-8,-27,0,-3,-2,-1,0,18
,-6,21,-19,-18,-3,-3,-3,-18
,4,6,78,15,0,-4,2,15
,1,-5,-27,0,1,0,-1,-40
,-2,0,-29,4,1,-1,-6,18
,2,-7,37,0,-2,0,-8,-41
,-6,-1,-33,-10,-1,2,0,3
,-10,-8,-45,11,-1,-3,0,30
,-3,0,94,-8,-6,-3,-5,-49
,4,-5,28,23,-2,-2,1,-2
,-4,-3,-42,-17,-4,-3,-3,2
,-4,4,59,4,2,0,1,4
,2,-6,-55,3,3,0,2,10
,1,-1,-8,-7,-1,-1,-2,6
,-9,2,16,-1,-2,-2,-3,-15
,5,1,35,1,-1,0,0,-18
,6,0,-14,14,2,0,-1,3
,-5,-4,39,10,-1,0,1,30
,-19,-2,-53,-30,-8,-2,-5,-35
,18,15,-21,2,0,0,5,-5
,-12,-10,-67,-9,0,1,-6,-38
,13,-2,-38,5,3,-22,-32,31
,-52,4,74,3,-3,20,3,44
,56,-8,-14,-1,2,12,38,-38
,-6,3,8,0,-2,4,8,62
,10,-3,-15,-8,5,13,26,-54
,7,-3,-18,1,0,-15,1,46
,0,-11,-2,1,-3,7,7,1
,6,-3,6,6,-3,-13,-22,-26
,-22,-8,-42,-19,-2,2,8,22
,23,7,4,8,-1,-3,12,-7
,-15,3,10,13,1,0,-10,9
,11,-7,-81,-13,1,3,10,-22
,-15,-2,26,-25,-12,-9,-10,-2
,4,8,45,12,3,-2,-12,-2
,-4,-14,-22,-13,-4,3,5,-7
,14,1,41,17,4,5,7,6
,-4,-6,-10,-2,-1,0,4,5
,12,4,-29,9,4,-5,0,-2
,-16,-2,36,12,-3,-1,-7,7
,6,-3,-72,-30,8,4,10,-8
,-3,3,58,24,-6,-2,-7,-3
,-1,1,37,20,2,-4,-8,-4
,-9,-10,-12,-10,-3,-18,-12,-2
,2,2,-7,10,-4,14,-5,-4
,3,0,6,-12,-1,2,10,4
,2,-3,-1,-5,0,2,3,-4
,-1,3,-36,-9,1,7,2,2
,2,3,40,3,-4,2,0,-1
,-6,-1,-24,-5,1,1,-2,-4
,-3,-4,-51,-1,-1,-4,-1,9
,0,2,-32,-9,-3,-2,2,-1
,4,-1,-19,-8,-2,4,1,-4
,0,-2,-18,-1,-2,2,-2,2
,3,8,-9,16,1,-1,-2,1
,-3,-5,16,-13,-5,-9,5,-2
,2,-10,-32,-17,0,0,9,2
,1,-2,-5,-8,0,-5,-7,-2
,-1,1,-1,-2,1,-4,-5,0
,-3,-1,12,0,-1,-1,1,-4
,-1,-3,5,-1,-2,-3,-2,0
,-1,-2,-3,6,0,-3,-6,1
,0,0,4,-3,-2,-2,3,-2
,-3,-5,1,-9,-3,-1,-2,-2
,2,0,5,3,1,2,1,4
,-2,3,-24,4,6,1,-2,0
,-1,3,60,15,-1,1,-2,-2
,-1,2,-5,-17,-6,-2,-5,-2
,-1,-1,-28,7,3,1,-4,-2
,-2,-2,4,5,1,0,0,0
,-1,0,12,-1,1,-1,3,-2
,-1,0,-7,-3,-4,-2,-3,-1
,0,-1,15,-6,-5,-3,-1,-1
,-3,-1,23,5,6,3,3,0
,0,1,-15,-5,-4,-2,-1,-1
,-1,-2,-10,0,1,4,1,0
,1,2,41,8,-3,-1,0,-2
,-1,0,-6,-3,-5,-3,-4,-2
,0,1,-1,-2,1,0,3,-1
,0,2,22,6,-1,-2,-2,-1
,0,-3,-6,-4,-4,-3,-4,-2
,-1,-4,-31,-4,1,1,-1,-1
,-2,-5,-43,-4,0,-2,-4,0
,-2,0,13,-1,-3,-3,1,-1
,0,3,36,8,-1,-1,2,2
,-3,-10,46,-8,0,1,1,-1
,0,1,5,0,-4,-2,-1,-2
,0,-1,13,-3,-2,-3,-2,0
,-1,-1,6,5,-1,0,1,-1
,0,-1,-41,-7,-5,0,2,-1
,-1,-3,18,2,0,1,-3,-1
,1,2,1,-1,-1,-1,-2,-1
,1,-1,4,1,5,0,-8,1
,-5,-5,-34,-9,-8,-4,4,-3
,1,4,-7,-6,-4,-1,2,0
,1,3,-3,-1,-2,-1,2,-1
,-2,-1,-6,9,6,4,0,1
,1,-6,-57,-5,2,2,-3,0
,-3,0,-9,-2,-5,-3,0,-2
,1,1,29,8,4,3,0,0
,-2,-4,-20,-6,0,-2,1,0
,-1,1,-4,4,0,-1,5,-2
,-2,0,-3,-4,0,1,-8,-2
,-2,0,22,3,-2,1,-1,0
,0,-2,-1,-1,1,-3,-6,0
,-1,-1,1,2,3,2,0,0
,-2,-2,2,-1,-4,-3,1,0
,-2,1,-14,-4,-2,-4,-4,-3
,2,2,19,4,1,4,1,1
,0,2,22,6,1,0,1,-1
,1,1,9,3,2,-1,-7,0
,-3,-6,40,-2,-5,-3,3,-2
,1,2,2,0,-1,2,4,-1
,-1,-4,15,-1,-1,-3,-4,0
,2,2,37,5,0,-2,0,-2
,0,-4,-36,-7,-2,-1,-3,-2
,-1,1,6,-3,-2,0,3,-1
,1,1,17,6,-2,-2,-4,-1
,-2,-1,-16,0,-2,-4,-7,-1
,-2,-2,-18,-8,0,-1,-8,0
,-1,-5,-11,-4,-3,0,-2,-1
,-1,-1,-33,2,0,-2,14,-1
,-1,-5,-32,-3,0,2,-2,1
,-2,1,26,-1,-1,-2,-1,-2
,-2,-4,-18,-3,-1,0,-2,-2
,1,2,24,-2,1,-2,-11,0
,1,4,18,8,0,-2,6,1
,-2,-5,-64,-7,0,2,6,-2
,-3,-5,19,-3,-2,2,4,-1
,1,2,-7,0,0,0,-3,0
,0,0,3,-5,-2,-4,-3,-3
,-2,-3,-41,-7,-3,0,-2,-1
,-1,-2,7,1,2,-3,-3,-1
,-1,1,3,2,-2,-2,-1,-1
,-2,1,16,-1,0,1,2,-1
,0,1,21,5,1,1,-2,-1
,-1,1,24,-5,-4,-2,-4,-2
,0,0,33,4,0,-2,-2,-1
,-2,-2,-21,-4,-2,0,3,-1
,-1,-3,9,1,-2,-1,1,0
,0,-1,-15,-5,-1,-2,0,-1
,1,-2,-9,0,4,6,5,2
,-3,-4,-23,-5,-3,2,4,-2
,1,1,-28,1,-1,2,3,1
,-1,-3,3,-12,-3,-2,1,-3
,-1,-1,-6,0,-1,-4,1,0
,0,0,6,-2,-1,-3,-14,-3
,-1,1,-1,7,5,1,1,1
,-1,-8,-10,3,0,-2,-5,0
,-2,5,-12,-7,-3,-7,3,-2
,-4,-4,4,1,-3,1,0,-1
,-2,2,19,0,-1,-1,-1,-1
,-1,-7,-33,0,2,-5,2,0
,-1,0,65,-6,-4,-1,-3,-3
,-3,-2,-89,-10,-4,0,-2,-1
,-1,-1,26,5,-4,-3,-3,-1
,1,0,21,-4,-3,-2,-2,2
,0,-1,-9,7,8,0,0,-1
,1,2,2,2,4,-1,-4,0
,-2,-13,-53,-12,-5,-3,-2,-3
,-1,3,15,0,0,3,5,0
,-3,-7,-23,-3,0,5,-2,-2
,0,1,9,-6,-5,-6,-6,-1
,3,1,33,11,4,1,1,0
,2,0,-24,-4,-1,0,-2,1
,-3,-1,-6,0,-4,-2,-3,-1
,-1,-1,24,-2,-3,-3,2,0
,3,5,2,4,-4,-3,-1,1
,2,-7,-7,-5,2,4,-2,-2
,1,4,56,4,3,1,-2,-1
,-3,-7,-48,-6,-4,0,-1,-3
,0,3,-7,-5,5,2,-3,1
,-3,4,27,0,-8,-5,-1,0
,-5,-3,-29,-1,0,1,-1,-3
,10,-3,37,4,-1,0,-1,0
,-5,1,-5,-20,0,2,-1,2
,1,-3,-26,1,1,-1,-1,-3
,-12,-3,-63,-12,-8,-4,-5,-3
,1,-3,-38,-4,-5,-2,1,1
,2,0,46,30,1,-4,-1,-3
,3,-2,-16,-6,0,0,1,0
,3,5,53,7,-2,0,-1,2
,-8,-10,-80,-8,1,0,-1,-1
,5,0,-28,-1,-4,-2,-1,-1
,-11,-4,10,-5,3,-1,-1,-1
,7,6,7,13,0,-3,2,1
,-1,4,15,2,2,1,-4,0
,0,-1,6,-6,0,-1,-5,1
,5,-4,-11,-3,-3,-4,3,-2
,-6,-3,-18,-5,-5,4,-1,-3
,11,-2,-10,-3,2,1,3,2
,10,-3,18,-4,1,0,7,3
,-10,4,-1,-7,-3,1,1,0
,1,-7,16,7,6,1,-1,1
,-1,4,24,4,-2,1,0,-3
,-15,1,-20,-3,-1,-3,-17,-1
,4,-5,7,0,1,-2,-5,0
,0,3,34,-3,-7,-4,-2,0
,3,-2,-14,2,1,1,9,0
,6,-5,-27,-7,-4,-1,1,-4
,-18,6,33,-6,3,-1,3,-4
,4,1,12,-1,0,-1,1,-2
,4,-3,-45,-1,-2,-4,8,-1
,-1,-3,26,-3,-4,-4,8,-1
,1,4,7,-4,-1,3,-1,-2
,-4,1,-6,1,-1,-10,-12,-1
,-1,6,53,12,3,12,12,2
,8,-6,-31,-16,-3,3,1,2
,0,2,25,14,1,-2,-2,0
,-6,-7,-37,-4,-1,-2,-5,-3
,-1,-2,5,3,-1,-7,-12,-1
,-5,1,31,0,-1,-1,-2,0
,3,2,25,4,-1,-2,-3,1
,-1,-8,-17,-3,1,1,-1,-1
,-2,3,1,-7,-6,-4,-5,-2
,-1,1,-9,4,0,0,0,-1
,2,-6,29,1,-3,0,-2,-1
,-1,2,-38,-4,-2,-2,-7,-2
,-1,-3,34,-9,-1,-1,-4,-1
,0,-3,-16,-7,0,0,0,-1
,0,1,15,3,0,-1,-4,-1
,0,0,8,5,-2,1,11,-2
,0,-2,-16,-6,-3,-3,3,-2
,-1,0,-5,0,-1,-1,6,-2
,0,-4,-6,-6,-3,0,2,-2
,0,-3,-22,3,5,0,-2,-1
,-1,-2,16,-7,-2,-1,-4,-1
,0,3,5,2,-4,-4,-4,-1
,-2,-2,9,-1,-1,1,-4,-1
,1,-1,-5,-3,-3,-1,-3,0
,-1,-2,-29,1,1,-2,-2,0
,-2,0,-3,-6,-4,-1,0,-1
,0,0,-20,2,0,0,-2,-1
,-1,-3,-1,-5,-4,-3,-1,0
,-2,-1,-3,2,2,-1,-2,-1
,-2,-4,-26,4,0,0,-1,0
,-1,1,23,7,-1,1,-1,-2
,-2,0,1,1,1,-1,-2,-1
,-1,-3,-6,-5,0,-2,0,0
,-1,-3,-5,-4,-1,-1,1,-1
,0,2,4,-7,-1,-1,-1,-3
,0,-2,-11,-1,0,0,1,1
,0,1,2,6,-2,-5,-1,0
,-2,-1,1,-6,-1,-3,-1,0
,-1,-1,-7,3,-2,-1,-1,-1
,1,-1,-3,-2,-1,0,-1,0
,0,-2,4,-2,0,0,-1,1
,0,1,3,3,0,-1,-1,0
,-2,0,-1,-1,-1,-2,-2,0
,-2,-1,-1,-5,-2,0,-1,1
,-1,-1,-8,-7,-3,-2,-2,0
,0,1,13,10,3,1,0,-1
,-1,-2,-2,4,0,-1,-1,-1
,-1,0,-1,1,-2,0,-2,-2
,-2,0,-2,-6,0,-1,0,-2
,-2,-2,-5,-6,-5,-4,-2,-1
,-1,-1,-5,-3,3,2,0,-1
,-3,0,11,1,-1,-1,1,-1
,1,0,-16,1,0,-3,0,-1
,-2,-1,0,-8,-4,0,0,-1
,-2,-3,-11,4,1,-3,0,-2
,0,-1,4,4,0,-1,-1,0
,0,2,12,5,2,2,-1,-2
,-1,0,-6,-6,-3,-1,-2,0
,-1,-2,-3,1,-3,-2,-3,-2
,-1,-2,-11,-5,-2,-1,-2,-1
,0,1,4,1,1,0,-1,1
,-2,-2,-3,-1,-2,-1,-1,-1
,-1,2,1,1,2,0,0,-1
,-1,-1,1,2,0,-1,-1,0
,-2,-3,6,0,-2,0,0,-2
,-2,-1,-3,-3,0,-1,-2,0
,0,-2,-3,-2,-3,-2,-2,0
,1,-2,-8,-1,1,1,0,-2
,0,0,-3,-2,-2,-1,0,-1
,-2,-1,-3,0,-2,1,-1,0
,-1,0,7,4,-1,-1,0,-1
,0,-4,-1,0,0,0,1,0
,-1,0,7,-2,-4,-1,0,-3
,2,1,0,-5,0,-1,-1,-1
,-1,-5,-3,13,3,-1,-2,-1
,-2,0,-2,-3,-1,-1,-1,-1
,0,-2,-3,1,-2,-3,-1,-1
,-2,-3,-1,-2,-3,-3,-2,-1
,-1,0,3,2,4,1,-3,-1
,-1,-4,-1,3,7,2,-1,-1
,-2,-1,0,-2,-3,-2,-3,0
,-2,1,-5,-1,-5,-2,-2,-1
,-1,-1,-5,-5,-4,-1,0,-2
,-1,1,7,-1,-2,-2,-1,-2
,-1,0,-1,-2,0,-2,1,-2
,0,-3,-6,1,2,-2,1,-2
,-2,-1,3,-4,-3,0,0,-1
,1,1,3,-1,-4,1,2,-1
,-1,-3,-5,-4,0,0,-2,0
,-1,-2,0,3,0,0,-2,-1
,0,3,-5,-1,-3,0,-2,0
,0,0,2,0,-2,-3,-2,-1
,-1,-1,2,-1,-1,0,0,-1
,-1,-1,-4,-3,-2,-1,0,-1
,0,-3,1,-2,-3,-2,-1,-1
,-1,-1,-6,-1,-1,-1,-1,-1
,-2,-2,-4,-4,0,0,-1,-1
,-1,0,-2,-2,-2,-1,1,-1
,0,-1,3,-1,1,-1,-1,-2
,-1,1,2,1,-2,-2,-2,-2
,0,-3,-4,2,-1,-2,-1,1
,-1,0,1,1,0,0,-1,-2
,0,-2,-7,-5,-1,-1,-2,0
,-3,-1,-3,-2,-1,1,-1,-1
,0,1,2,1,0,1,-1,-2
,-2,-1,-1,-1,-2,-1,-3,0
,-1,1,-1,-1,-3,0,-1,0
,-2,-3,0,-4,1,0,-3,-1
,-1,0,0,-2,-2,-2,-2,1
,0,0,0,9,3,1,-3,-1
,-2,-4,-10,-5,-2,-1,-1,-2
,0,2,9,5,-2,-2,-4,-1
,-1,0,-1,-4,-1,1,-5,0
,-1,-3,-2,-1,-2,-1,-3,-1
,-1,0,-2,1,0,-1,-1,0
,-1,-3,-6,-4,-3,1,-1,1
,-2,-1,0,1,-1,-2,0,-3
,-1,0,0,-2,0,1,1,0
,0,-2,0,0,0,0,3,-3
,-1,-3,-4,-1,1,-1,3,-1
,0,0,2,0,1,-2,1,0
,-1,-4,-12,-3,-1,0,5,0
,-2,3,15,-3,-4,-4,14,0
,-1,0,1,0,2,-1,11,-1
,-2,-2,3,-1,-2,-2,5,-2
,-1,-2,3,1,-1,-1,-1,-2
,-2,-5,-10,-4,1,2,-7,0
,0,1,1,2,0,1,-6,-2
,1,1,1,-2,-1,0,-4,-1
,-2,0,0,-2,-2,-3,-5,-2
,-2,0,3,1,0,0,-3,0
,-1,-3,-6,-5,-3,-2,-4,0
,0,-1,-2,3,1,1,-5,-1
,0,0,-7,-4,-2,-5,-2,0
,1,0,10,-3,1,1,-5,0
,0,-1,-5,-3,-1,-1,-1,-1
,0,-2,-5,-2,-1,0,-1,-1
,0,0,-1,2,0,-1,-1,-2
,0,0,7,-2,-2,-1,2,-1
,-2,-5,-12,-1,-1,-8,-2,-3
,0,-1,4,-5,1,8,-4,-1
,3,1,-7,2,2,2,7,1
,-2,-2,-7,0,0,-3,-3,-2
,-2,1,3,-1,-1,3,-4,-2
,0,2,4,0,-1,-5,1,-2
,-3,-3,0,-5,-2,-3,-4,-2
,2,-2,-11,-4,-1,0,0,1
,-3,3,4,3,-2,-2,0,0
,-2,-5,-9,4,-1,0,1,-1
,-2,0,2,-3,-2,1,-3,-1
,-1,-1,6,2,-3,-3,0,-2
,1,-2,-8,-1,0,-2,-3,0
,-2,1,-10,-4,-1,0,6,1
,-1,-4,-1,-1,-3,-1,0,-1
,0,1,1,-3,-2,-1,-2,-3
,0,-3,6,3,1,-3,-7,-1
,0,1,1,0,0,-2,1,-1
,0,0,7,-2,-3,-3,-3,0
,-1,-2,-4,1,-2,-2,-3,-1
,-1,-2,-2,-3,-2,-2,-2,-2
,-1,-4,-4,-1,-2,-2,-1,-1
,-2,4,3,-3,-2,0,-3,-3
,-2,0,0,-1,0,-1,-1,-2
,-1,-4,1,-1,-2,1,1,0
,-1,-6,-7,-3,0,-2,-2,-2
,-2,-2,-1,-5,-1,3,1,0
,0,1,-6,10,4,-1,-1,-1
,1,0,3,-1,1,-1,1,0
,-1,1,-1,-1,-1,-10,-6,1
,0,0,3,-3,-4,-1,-2,-1
,-1,-2,0,5,1,1,2,-2
,1,-3,-6,-3,0,2,-3,1
,1,2,7,3,-3,-1,-3,0
,-2,-2,-2,-3,0,-2,-3,-1
,-2,-3,-8,-2,-3,-4,-3,0
,1,2,4,-8,-4,1,4,0
,-2,-2,0,-1,-3,-2,0,-1
,-2,-3,1,2,0,-1,-2,-2
,0,-1,-1,-1,-2,2,-2,-1
,-2,0,-11,-2,-1,-1,-1,-2
,-1,-3,5,0,-2,0,2,-2
,0,0,-3,0,-1,-1,-1,0
,-2,-2,-3,-1,0,-1,0,-1
,0,0,-3,0,-1,-2,0,0
,0,2,7,-6,-1,1,-2,-2
,-1,0,0,0,-2,-2,0,-2
,-1,1,-3,0,-3,-2,-3,-1
,-1,1,6,3,-1,1,0,-1
,-3,-5,-6,-2,0,1,-2,1
,1,-2,-6,-2,1,-2,-1,-2
,0,-1,3,-6,-2,-2,-1,0
,-1,-5,-3,-1,-3,0,0,-3
,-1,2,-2,4,-1,0,-1,-1
,-2,-2,-6,-3,-1,-1,0,-1
,-1,0,-1,-3,0,0,-2,-1
,-1,0,3,1,1,0,-3,0
,0,-4,-3,-3,-1,-2,-2,-1
,0,1,2,4,-2,-1,-2,-1
,-2,-2,2,-4,-1,-1,-4,0
,-1,0,2,-1,0,0,3,0
,-1,-1,-4,-1,-2,0,4,-2
,0,-5,-4,1,2,1,3,0
,1,5,5,0,-1,-2,1,-1
,-1,-2,-2,-1,0,-1,-1,-1
,-1,0,-3,-2,-1,-2,-3,1
,0,-1,-2,-1,-1,0,-1,-2
,-1,-3,1,-2,-1,-2,-1,-2
,0,2,3,1,-2,-1,-2,0
,-1,0,-2,1,-1,0,0,-1
,-1,-3,-2,0,-2,-1,-3,0
,-3,-3,-2,-2,-1,0,-3,-1
,0,1,-1,-2,-3,0,0,0
,-1,-1,1,0,0,-1,-2,0
,1,0,-2,-3,0,-1,-1,-1
,0,-2,-4,-4,-1,0,0,-1
,-1,-2,1,-1,-2,0,-1,-2
,-1,-2,-2,3,0,2,0,-1
,-1,1,8,-7,-3,-4,-2,-2
,0,1,0,2,0,-5,1,-2
,-1,0,0,0,-2,-7,-2,-1
,-1,-2,-1,1,1,-4,-1,-1
,-1,2,0,1,-2,-1,-1,0
,-2,-1,-4,0,-1,-1,1,0
,0,0,-7,-1,-1,-1,0,-1
,0,-2,2,-2,-2,0,-1,-1
,-1,0,1,1,0,-1,-1,-1
,0,-1,-7,-2,-1,2,-2,0
,-1,0,7,0,0,2,-1,0
,-2,0,-3,-2,-2,-1,-1,-2
,-2,-1,0,1,0,1,-1,-1
,-1,-1,-1,0,-1,0,-2,-2
,-2,-4,-12,0,1,1,-1,-1
,1,2,8,1,-2,1,-1,-1
,-1,-1,0,1,0,-2,1,1
,-2,-3,-4,-1,-1,0,-1,0
,0,-1,-1,0,0,-1,-2,1
,0,-1,-1,-3,0,-1,0,0
,0,-1,-1,-1,-1,1,0,-1
,-1,-2,-3,-1,-1,0,0,-1
,-2,-2,1,-2,0,-2,-1,-3
,-2,0,-1,-1,0,0,-1,-2
,-1,0,1,2,-3,-1,0,-2
,-1,-3,-2,-4,-2,-3,1,-1
,-1,0,0,0,0,0,1,-2
,1,-3,-2,-4,-1,0,0,-1
,-2,-3,1,1,0,-1,-2,0
,-1,1,-1,-1,-1,-1,0,-2
,-1,-1,-2,0,-2,-1,0,-1
,-1,-1,-5,-1,-1,-1,-1,1
,0,-1,-1,-2,-1,-2,-3,0
,-1,-1,5,1,-2,0,-1,0
,-1,0,3,0,2,0,-2,-2
,-1,-2,-5,0,-1,-1,0,-1
,1,0,2,-3,-2,-1,-1,0
,-2,-2,-5,-1,-2,-1,0,0
,-1,0,-3,-2,-4,-1,0,0
,-1,0,-1,-3,-1,-1,-1,-1
,-1,1,3,3,0,-2,1,-1
,0,1,4,-1,-1,-2,-2,-1
,-1,-3,-1,-3,-1,-3,0,0
,-1,-1,-3,2,0,-1,-1,-1
,-1,1,-1,-2,-2,-1,0,0
,0,-2,0,-1,-1,0,-1,-1
,-1,1,1,-2,-1,0,-1,-1
,0,-1,-1,-1,-1,-2,-1,-2
,-2,-4,-6,-2,-1,2,0,-1
,0,-1,2,1,0,-1,-1,-1
,-1,2,-3,-5,-3,-2,-1,-2
,-2,-4,-4,0,-1,-2,1,-1
,0,-2,-7,-2,1,1,-1,-2
,-1,4,8,1,-4,-1,-3,-1
,-3,-4,-7,0,0,0,0,1
,0,0,-2,-1,1,-1,0,-1
,-3,-2,-2,0,0,-3,-1,-1
,-2,-3,-5,-1,0,0,-1,-1
,0,0,5,-1,-2,-1,-2,-1
,-2,2,5,-2,-1,-1,-1,2
,-2,-3,0,1,-2,-1,0,-2
,-1,-1,-8,-2,-1,0,0,-1
,-1,-4,3,3,-1,-1,0,0
,-1,-1,-8,-9,-2,-1,-3,-2
,-1,4,14,2,-1,-1,-3,-1
,-2,-1,-6,-2,-2,-1,0,0
,-1,-1,0,1,0,-1,-2,-1
,-1,-3,-5,-1,-1,-1,0,-2
,-1,-1,-3,0,-1,0,-2,0
,-2,-1,5,-2,-1,-2,-1,-1
,-1,-3,-9,-1,0,0,-1,0
,-2,3,6,0,-1,-1,-1,-1
,-3,-4,-3,-3,0,-1,-1,0
,1,1,4,0,-1,-1,0,-1
,-1,-2,-3,-3,-4,-3,0,-1
,0,1,-1,1,-3,-1,-1,0
,1,-1,-2,3,0,0,-1,0
,-2,-2,-2,-7,-2,0,0,0
,0,0,2,0,-2,-1,-1,-1
,0,-1,-5,3,-1,0,0,-2
,0,1,1,-4,-2,-2,0,0
,-2,-2,-5,2,-1,-1,-1,-1
,0,2,4,-1,-1,2,-2,-2
,-1,-3,1,-3,-2,-2,-1,-1
,0,-1,-15,-5,-2,-1,2,-1
,-1,1,5,0,-2,-2,-2,0
,-3,-1,3,2,1,-1,-1,0
,-1,-1,1,2,1,0,1,-1
,0,-3,-1,-2,1,1,-1,-2
,-1,-1,-11,-2,-1,-3,0,-1
,2,1,12,2,1,-1,-1,-1
,-3,-3,5,-2,-5,-1,-3,-2
,-2,-2,-2,-2,0,-2,-1,-1
,0,-3,0,-4,-1,-3,1,-1
,-1,-2,-2,-1,-3,-2,0,0
,0,0,-6,-2,0,0,2,0
,-1,-2,1,3,1,1,0,-1
,0,-1,-3,-1,0,-1,-3,-3
,0,-1,-4,-2,-2,-2,-3,0
,-1,-1,9,3,1,0,-3,-1
,-2,-1,3,-3,-3,0,-1,0
,-2,-1,-8,6,1,1,1,-1
,-3,2,1,-10,-3,-2,-3,-2
,1,0,-9,0,-3,-1,-2,0
,0,-2,10,-1,-1,-1,-1,0
,-2,-3,-1,0,-3,0,-4,-2
,-1,-2,-8,-2,-1,-1,0,-1
,-1,-1,8,-3,-2,-2,-1,1
,0,-2,-18,1,0,-1,-2,-1
,-3,-5,16,-2,-2,-1,0,-2
,-2,-5,-46,-1,1,1,-2,0
,-2,-2,-1,-2,-1,-1,0,0
,0,4,2,1,-3,-1,-2,0
,0,0,-6,-2,-1,1,-1,-1
,-1,2,7,1,0,-2,-2,0
,-2,-1,-2,1,0,-2,0,-2
,-1,-1,-5,-5,-3,-1,-1,-2
,-1,2,-1,0,-1,-2,0,-1
,-1,-5,1,-3,-1,-1,0,-1
,-1,-2,0,-1,1,1,1,-1
,-1,-1,3,-1,0,-1,0,-2
,-3,1,5,-2,-2,-1,-2,0
,-1,0,5,2,-2,0,-1,-2
,-1,-2,-3,-1,0,-1,-2,-1
,-2,0,-4,1,-1,-2,-3,0
,0,-1,-4,-5,-1,0,0,-1
,-1,-3,1,-2,0,0,0,-2
,-1,1,-1,1,-2,-1,-1,0
,-2,-5,-1,-1,-2,-2,-1,-1
,1,-1,-4,1,-1,-1,-1,0
,0,2,16,4,1,0,0,0
,-1,-3,-4,1,-1,-2,0,-1
,0,-2,-8,-2,-1,-1,-1,-1
,1,-2,-6,-2,-1,-1,-1,1
,-1,-1,-10,1,-1,-1,1,-1
,-2,-4,-8,-7,-2,-1,0,1
,-1,2,3,1,2,0,0,0
,-2,-3,15,0,-1,-1,-3,-3
,0,-1,-6,-2,-1,-2,-2,-1
,-1,1,1,0,0,0,-1,0
,-2,-4,-7,-2,-2,-1,-1,-1
,-1,1,-1,-1,-2,-2,-1,1
,-3,1,7,2,-1,0,-1,0
,-2,-1,0,0,-1,-2,-2,-1
,-2,-1,2,-3,1,0,1,-1
,-1,0,-3,0,-1,-2,-1,1
,1,-2,1,-1,-1,-2,0,-1
,0,1,-2,-1,0,-2,-2,-1
,-1,-3,3,-2,-4,-1,0,1
,0,-1,-3,3,0,0,0,-2
,-1,-1,-2,-6,-4,-2,1,-1
,-2,-1,2,1,0,0,-1,-1
,1,1,2,0,0,-3,-3,0
,-2,-3,-7,-1,1,-1,-2,0
,0,-1,-1,-1,-1,-1,-1,-1
,-2,1,-2,0,-1,-3,-1,0
,0,0,0,-1,-2,1,0,0
,0,0,-2,-3,0,-1,0,-1
,-1,0,4,0,0,0,0,-1
,-2,1,-6,-2,-3,0,-2,-2
,1,2,2,1,-4,0,0,-1
,-2,-2,-2,0,-2,-1,0,1
,-1,0,2,2,0,0,-1,1
,0,-4,-11,-4,0,-1,1,0
,-1,3,10,5,-2,-2,-2,-3
,0,0,0,0,-2,-1,-1,-2
,1,-3,-4,-3,-1,-1,-3,0
,-1,0,2,1,-1,1,0,-1
,-1,-2,-9,-4,0,-1,0,-2
,-2,-1,-1,-2,1,1,0,-1
,-2,-1,2,2,-1,-2,-2,-1
,0,-3,0,0,-1,-2,-1,-1
,0,-5,-4,1,1,-1,0,0
,1,5,7,-3,-3,-3,-2,-1
,-2,-1,-6,-2,-2,-3,-1,-2
,0,2,8,0,-3,0,-2,-1
,-1,-4,-2,-4,0,-1,1,0
,-1,-2,-3,1,-1,1,-1,-1
,-2,0,-3,0,-1,0,-1,-2
,-1,1,4,-1,-1,-1,-2,0
,0,2,2,2,2,-1,-1,-2
,-1,-5,-10,-5,-2,-1,-1,1
,-1,-2,-12,-3,-2,-2,-2,-1
,-1,0,12,1,-2,-3,-4,-1
,-3,0,-2,-3,-2,0,-2,-1
,0,1,0,1,0,-1,0,0
,0,-1,1,-1,1,-1,-1,0
,0,-4,-10,0,1,1,1,-1
,-2,-1,-1,-1,0,-1,-1,-2
,-2,-2,0,-1,-2,-1,-1,-3
,-1,2,2,0,-1,1,-1,1
,-5,-8,0,0,2,-1,0,-2
,1,8,-10,0,-2,-2,0,-1
,-1,-3,-3,-1,-1,-2,0,0
,0,0,5,-1,-2,0,1,-1
,0,-3,-2,-2,-1,-2,-1,0
,-2,-6,-2,1,0,0,-1,0
,-1,1,0,2,1,-1,0,0
,0,1,1,-2,-4,-1,0,-2
,-1,-1,-1,-2,-2,-1,-1,0
,-2,-7,-11,-5,-1,-2,1,-2
,-2,1,9,3,-1,-1,-3,-1
,-1,-1,11,-3,-3,-2,-3,-1
,0,2,-4,-6,-3,-1,0,-1
,1,-2,0,-2,-2,-1,-1,-1
,-1,-3,-5,-1,0,0,0,-1
,-1,-3,-7,3,2,0,1,-1
,1,2,1,2,-2,-3,-2,-2
,-1,-2,0,-4,-3,0,0,-1
,-1,-2,-3,1,-2,-2,0,-2
,-1,2,-3,-5,-2,0,-3,-4
,-1,1,-1,0,-3,0,0,-1
,-1,-2,-7,-4,-1,-3,-1,1
,-2,0,-2,0,0,0,0,-1
,-1,-1,5,1,-2,-1,-2,0
,0,-1,-4,0,-1,-1,-1,1
,0,0,2,1,0,-1,0,-1
,0,-4,-8,-1,0,-2,0,-1
,0,0,0,2,-1,-4,0,0
,-1,0,4,-8,0,0,0,0
,0,-2,-3,0,-4,-1,1,-2
,-1,-2,1,1,0,0,-1,0
,-1,0,0,0,0,0,-2,-1
,0,-1,6,-5,-2,-2,-1,-1
,1,2,6,5,0,-1,-2,-1
,-1,-3,-8,-5,-2,-3,-1,0
,-1,-5,0,-2,-1,-1,0,0
,1,1,-1,3,1,0,0,-1
,-2,-3,-5,-3,-1,-1,-3,-1
,0,2,2,0,-3,-1,1,0
,-1,-1,-3,0,-1,-1,0,-1
,-2,-3,-1,-1,-1,-2,-1,-1
,-2,-1,-1,-7,-1,-1,-2,-2
,-1,-2,-16,0,-3,1,0,0
,-1,2,25,0,0,-1,-1,-1
,-2,-2,-11,0,0,-2,-2,-1
,-2,-4,-4,-3,0,-1,0,1
,1,1,2,-1,-1,-2,-3,-1
,-2,-6,-15,-2,-2,0,0,-1
,-1,1,5,5,0,0,0,-2
,0,0,2,1,1,0,-1,0
,-2,-5,-5,-2,0,0,-2,0
,0,1,17,-2,-3,-1,-1,-2
,-1,1,-1,-1,-2,-1,-1,-3
,-1,0,-2,2,1,-2,1,-1
,-1,-3,-4,-2,-1,-2,-2,0
,-1,-2,-7,3,1,-1,0,0
,-1,-2,2,0,-2,-2,0,-2
,1,-1,-4,-4,-1,-2,-2,-2
,0,1,7,-1,0,-2,-1,-2
,0,-3,-5,2,0,1,0,1
,0,1,-2,-3,-1,0,0,-1
,-2,1,-1,0,0,-1,-2,-2
,-3,-2,0,1,-1,-1,1,-1
,-1,0,0,-2,-2,0,-2,0
,0,-4,-2,-1,-1,1,-2,-1
,-1,0,6,0,-3,-2,-1,0
,-2,-1,1,-1,1,0,-1,0
,0,-2,-2,1,-1,-1,0,-1
,-1,0,1,-2,-2,1,1,0
,1,2,-10,1,-1,0,3,-1
,-1,-5,-5,-5,0,-1,1,-1
,-2,-6,-19,2,-1,0,-3,-2
,1,0,5,2,-1,-2,-2,0
,-3,0,-5,-2,-2,-1,-2,-1
,1,-1,-1,-3,0,-1,-2,-2
,0,-2,1,-3,-2,-2,-1,-1
,-1,0,-2,0,0,1,-2,-1
,-2,-4,-3,0,-2,0,-1,0
,0,1,1,0,1,-1,0,0
,-2,-2,1,1,0,0,-1,-1
,1,0,-8,-1,-1,-1,-1,0
,-1,0,7,-5,-2,0,-1,0
,-2,-1,2,-2,0,-1,-2,1
,0,1,-3,1,0,0,1,-2
,-3,-8,-14,-2,-1,-1,-1,1
,0,-1,2,-1,-1,-3,-1,-2
,-1,-1,0,0,-2,-1,0,0
,0,1,10,1,-1,-1,0,-2
,0,1,-9,-3,0,1,-1,-1
,0,0,4,0,-2,-2,0,-1
,-1,-1,4,-3,-2,0,1,-2
,0,-2,-3,-1,1,-1,-3,-2
,0,1,3,1,0,0,-3,-1
,-1,-2,4,-2,-3,-1,-3,-1
,0,-1,-6,-4,-1,-1,-1,-1
,0,2,12,1,-2,-2,-1,-2
,-2,-1,-5,1,-1,0,1,-1
,-3,0,1,-3,-1,0,-2,-1
,-2,-2,-6,2,0,1,-1,-1
,-3,0,4,-8,-5,-2,-1,-2
,0,0,-1,-1,-2,-2,0,-1
,-2,-5,-8,-1,1,1,-2,-1
,0,4,7,0,-1,-2,-2,-1
,-1,-1,7,-2,-3,-2,0,0
,0,1,3,1,-1,-1,1,0
,1,-1,-6,-1,1,-1,1,-1
,-1,-3,-4,-4,-1,-2,0,0
,0,-2,-7,2,1,0,-1,-2
,0,1,8,-1,1,-1,-1,-2
,-1,1,1,0,-1,-1,-2,1
,-2,-1,-2,2,0,-1,-2,-1
,-2,-1,-6,1,0,0,0,-1
,-2,-3,-3,-2,-2,-2,0,-2
,-2,-1,-3,-1,1,0,1,-1
,-2,-1,-8,-3,-2,-1,-1,-2
,1,0,-2,2,0,0,0,1
,-1,2,6,-1,-1,0,-2,-2
,0,0,1,-1,-2,-1,-1,-1
,-1,-3,-3,-1,0,-4,-1,-1
,-3,-3,-5,-1,0,-2,-1,-2
,0,0,-1,-2,-1,0,-1,-1
,-1,-1,-5,-1,0,-1,-3,-1
,-3,-4,-2,-3,0,-2,0,-2
,-1,2,1,2,-1,0,-1,-1
,-1,-1,6,-1,-1,-1,-1,-1
,-1,-2,-2,-5,-1,-1,0,0
,-1,-3,-1,0,0,0,-1,-1
,0,1,2,2,0,-2,0,0
,-1,-2,-12,-1,0,-1,-2,0
,-1,-1,15,0,-1,0,-1,-1
,0,1,-1,-2,-2,-1,1,0
,0,1,-2,0,0,-1,0,-1
,0,1,-6,2,-1,-1,-1,0
,-1,-3,1,-1,0,0,-2,-1
,0,0,-2,-2,-1,-2,-3,-1
,-1,-2,-3,1,-1,-2,-2,-1
,-1,-2,-2,-1,-3,0,-3,-1
,0,1,-4,0,0,-1,-3,1
,-3,-3,-1,-1,-2,-1,-1,-1
,0,0,-4,-2,-2,-1,-2,-1
,-1,0,1,2,-3,-4,-1,-1
,0,-2,-5,-3,-1,-1,-1,-2
,1,0,-2,-3,0,0,1,-2
,-2,-1,2,-2,-1,-1,-2,-1
,-1,-3,-7,-3,-1,0,0,-1
,0,3,12,1,-1,-2,-1,-1
,-2,-2,1,-2,-1,-1,-1,0
,-1,0,-2,-1,0,-1,-1,-2
,-1,0,-1,-1,-1,0,0,-1
,-1,0,-5,-1,-3,0,0,0
,-1,-4,-5,-2,-2,1,-1,-1
,-2,-3,-4,-2,-2,0,-1,-1
,0,-1,-4,-1,-1,0,1,2
,-1,3,-1,1,-2,-1,-1,0
,-1,0,14,-1,-1,-2,1,-1
,-1,-1,-8,0,1,-1,-1,1
,-1,1,5,-2,-2,-1,-1,-2
,-2,-3,-2,-1,-2,1,-2,-1
,0,0,-7,0,-2,0,0,1
,-1,-1,1,-1,-1,-1,-3,0
,1,-1,-4,0,2,0,-1,1
,-1,-4,-14,-2,0,1,-1,0
,-1,1,-5,-2,-3,-1,-1,-1
,-1,-1,12,-3,0,0,-1,-1
,0,-1,-2,-1,0,-1,0,0
,0,-1,-3,0,-1,1,-1,-1
,-1,-3,-4,-2,0,-1,0,-3
,-1,0,7,-1,-2,-1,-1,-1
,0,0,-4,-2,1,-1,0,-1
,-2,-1,-1,3,0,-1,0,-1
,-1,-2,9,-3,-2,-2,0,0
,1,0,-14,1,-1,-1,0,0
,-3,1,5,-3,-3,-1,-3,-2
,0,-2,0,-1,-1,-1,0,-2
,0,-1,-4,0,1,1,-1,0
,-1,2,4,0,-2,-2,1,-3
,-1,1,8,-4,-1,-2,-4,-1
,-2,-2,-4,0,-1,0,0,0
,0,2,-7,2,0,0,-1,0
,0,-1,3,-3,-1,-1,0,-1
,-1,0,-3,0,0,-1,-1,0
,-1,-2,-1,-3,0,-1,-2,0
,0,-3,-3,-1,-3,0,-2,-1
,0,-1,0,-1,-1,-4,-2,-1
,0,-1,-2,0,-3,-4,-1,-1
,-2,-3,-6,-2,-1,0,0,-1
,-2,-2,-4,1,-1,0,-2,-2
,-1,3,14,2,-2,-1,-1,-2
,2,-1,-5,-2,0,0,-1,-1
,-2,-1,-2,-3,-2,2,-2,-1
,-4,-2,-5,1,0,0,-3,-1
,-1,-2,-2,-4,1,1,0,-1
,-2,-1,-7,-3,-2,-1,1,-2
,-1,2,18,1,-2,-1,-1,-1
,0,0,-5,-2,-1,-1,-2,-1
,1,0,1,1,-3,-1,-2,-1
,0,0,5,2,-2,-2,0,-2
,0,-1,-12,-4,-2,-7,-3,0
,1,-3,3,1,0,-5,-1,-1
,-2,-3,-6,1,0,-1,0,-1
,1,2,4,-1,-2,0,-1,-1
,-1,-3,-6,0,0,2,0,-2
,-1,-1,7,-2,0,1,0,-1
,0,1,5,-3,-2,-1,-2,-3
,-1,-3,-4,3,0,0,0,-2
,0,-1,-7,-2,1,1,-2,0
,-1,-1,1,-1,-1,2,-1,0
,0,1,3,-1,-1,0,-1,-2
,-1,0,-1,0,-1,-2,0,-2
,-3,-3,-4,-3,0,-2,0,-1
,-1,-1,-5,-2,-2,-2,-2,-1
,-1,-1,-1,-1,-2,-1,-1,0
,-2,-2,-5,1,-1,-1,-2,0
,0,1,2,-3,-1,-1,0,-1
,-2,-4,-7,-1,1,-2,0,-1
,-1,2,5,6,-1,-2,-1,2
,-1,-2,-24,-2,0,0,0,0
,0,-2,13,-2,-1,-1,-1,-2
,1,0,-4,0,0,0,1,-3
,0,-1,2,0,-2,0,0,-1
,-1,-1,5,-4,-1,-2,-2,-1
,-1,-2,-8,3,0,-1,-1,-1
,-3,0,0,-6,-2,-2,-1,-2
,1,1,6,-1,1,-2,-2,-2
,-2,0,7,1,-1,-2,0,0
,-2,1,6,-4,-1,-1,-1,-2
,-1,-2,1,-3,-1,-2,-2,0
,-2,-2,-2,0,0,0,-1,0
,-2,-1,-1,0,-1,-1,0,1
,-1,-1,-12,0,0,0,-2,-1
,0,0,-6,0,-1,-1,-1,-1
,-1,2,16,0,-1,-3,-1,0
,0,-4,-15,-2,-1,-1,0,0
,0,-1,11,2,-2,-2,-1,-2
,0,-1,-16,-1,1,-2,-1,-1
,-1,-4,-9,-3,-1,0,0,0
,-1,1,12,0,-2,-1,-1,0
,-1,-1,-2,-1,0,-1,0,-2
,2,-1,1,4,1,-1,0,1
,1,0,-5,-3,-1,-3,-1,0
,0,-1,5,0,1,-1,-1,0
,0,1,6,-4,-1,1,0,0
,-1,-2,1,-2,-1,1,0,-2
,0,0,-6,2,1,1,1,0
,-1,-2,4,-3,-1,0,0,-1
,-1,-5,-26,-4,1,-2,-1,-1
,0,0,9,2,-2,-3,0,0
,-2,-1,0,1,-1,-2,0,-1
,-1,0,3,-3,-4,-1,-2,0
,-1,-1,-3,-2,-1,0,-2,0
,1,-1,1,0,0,-1,-1,-1
,-3,-7,-10,-4,-1,0,-2,-3
,-2,0,1,1,0,-1,0,-1
,-1,-1,1,1,-3,0,-1,-2
,-3,-2,-6,-4,0,1,1,-1
,-2,-2,4,1,-1,-2,-1,-1
,-2,-1,-2,0,0,-2,-3,-2
,-2,-3,-2,-3,0,-2,1,-1
,-1,-2,-8,0,-2,0,1,-1
,-2,0,-2,0,1,-2,0,0
,0,0,6,0,-1,-1,0,-1
,3,2,-11,1,0,-1,-2,0
,-1,0,4,-6,-2,0,-2,-1
,-4,-4,-16,-5,-2,0,-2,-1
,-3,2,5,0,-2,-3,-2,-1
,-1,2,12,2,-1,1,-2,-1
,-1,0,1,-10,-4,0,-1,-1
,-2,-2,-3,-1,-1,0,1,-1
,-1,-3,-9,0,-1,-1,-1,-1
,-2,-3,0,1,-2,-2,0,-2
,0,-2,-7,4,1,0,0,0
,-1,1,9,-3,-1,-1,-2,0
,-1,1,-5,1,0,-3,0,-1
,-2,-3,-1,-7,-1,-1,0,1
,-1,2,11,1,-3,0,-3,0
,1,1,4,-1,-1,-3,-2,0
,0,-4,-3,-2,-2,-1,-2,-1
,-1,1,3,4,-1,0,-1,-1
,-1,1,2,1,0,0,-1,0
,-2,-2,-6,-2,-1,-1,-1,0
,-1,-1,0,-3,0,-1,1,0
,-1,1,3,-1,-2,-3,0,-1
,-1,0,-1,2,0,1,0,0
,-2,-1,1,2,0,-1,0,0
,-2,-1,-2,-1,-1,-2,-2,-2
,0,0,2,1,-2,0,-2,-2
,0,-4,-9,-1,0,-1,-1,-1
,-1,1,-1,-1,-3,-2,-2,-1
,-2,-4,6,0,-2,-1,0,-2
,-1,-2,-11,0,1,0,2,-2
,-1,1,9,-2,-1,-1,-1,-1
,0,-2,-17,-3,-1,-2,-2,-1
,-1,-2,2,2,1,0,-2,1
,0,4,8,-1,-3,0,-2,-3
,-2,-5,-3,0,-1,0,0,-1
,-1,-4,-9,-3,-1,-1,-1,-2
,0,1,-6,-1,-1,1,0,-1
,-2,-1,10,-2,-2,0,-2,-1
,1,-1,-4,-2,-1,-1,0,-2
,0,1,8,2,-1,-1,1,0
,0,-2,-7,-1,-1,-1,-2,-1
,-1,0,0,-2,1,1,-1,-1
,-1,-1,-9,-3,0,0,-1,0
,-2,2,10,1,-4,-2,0,0
,-2,-1,-6,1,-1,-2,1,-1
,1,-2,-13,-1,-1,-1,-1,-1
,-3,-4,3,0,-1,0,-3,-2
,-2,-4,-4,0,-3,0,-1,-1
,-1,2,-1,-1,0,1,0,-1
,0,-2,3,0,0,-1,0,0
,1,-1,1,0,0,0,-1,-1
,-1,1,-3,-1,-1,-1,-2,-2
,-2,-3,0,-2,-3,-1,-1,-3
,-1,-2,2,1,-1,-1,-2,0
,-2,-1,-7,-3,-1,-1,0,1
,-1,-1,-3,-2,-1,-1,-3,-1
,1,-1,-4,-2,-1,-1,-2,-1
,-1,-1,3,0,-1,0,-1,-1
,-2,-2,-4,-1,-1,0,0,1
,-1,-1,-13,0,-2,-1,-2,0
,0,-1,7,1,0,-2,-2,-1
,-1,0,1,1,0,-2,0,-1
,-2,-2,-5,0,0,0,-1,-1
,0,-3,-3,1,-1,0,0,-2
,-2,0,-5,-1,-1,0,0,-1
,-1,1,3,0,-2,-2,-1,-1
,-2,-4,-17,-1,0,-1,-1,0
,-1,3,19,-4,-2,-2,-1,-2
,0,0,1,-1,0,-1,-1,-1
,-1,-2,-8,-4,0,0,0,-1
,-1,-1,6,0,-2,-1,0,0
,0,-2,-4,-4,-1,-1,-1,-1
,1,1,-2,0,-1,1,0,-1
,-4,-3,-6,-1,1,0,-2,-1
,0,2,4,-1,-1,-1,0,-1
,-2,-1,2,-2,0,-1,-1,-1
,0,0,-3,-3,-3,-1,-1,1
,-1,0,8,3,-2,-2,-1,-1
,-2,-4,-10,-1,0,-1,-1,1
,-2,-1,-3,-6,1,0,-1,0
,-1,-4,-6,-3,-1,-1,-2,0
,0,1,3,-3,-1,-1,1,0
,-1,-2,-1,1,0,1,-1,-1
,0,0,13,0,-1,-1,0,-1
,-2,-3,-26,-3,-3,0,0,0
,0,1,-1,4,0,1,-2,-1
,-1,-3,2,0,-3,0,-2,-1
,0,-2,-1,1,-2,-1,-2,-2
,-1,-3,6,4,-2,-1,-1,-2
,-1,0,1,0,-1,0,-1,1
,-1,0,-4,-1,-1,-2,-3,-2
,-1,-2,15,3,0,-1,0,-3
,-1,-1,-3,3,0,-2,1,0
,1,-3,-6,-2,-1,-1,1,-1
,0,0,-2,-2,-2,-2,0,-1
,-1,2,9,2,-1,-3,-2,-2
,0,1,-9,-5,1,-3,-1,-2
,-2,-4,-9,-2,-1,-4,1,-2
,-1,0,-2,0,-1,-1,-2,-1
,-1,-1,-11,-1,-2,1,-2,-1
,0,0,17,-1,-1,0,0,-2
,-1,-2,-11,-3,-1,0,-1,0
,-1,0,2,2,-1,-1,0,-1
,1,3,4,0,-3,-3,-2,-2
,-1,1,2,1,1,0,-1,-1
,-1,-2,-8,0,-2,-1,-1,0
,-1,-2,8,-1,-1,1,-2,-1
,-1,-2,-17,-2,-1,1,1,0
,0,-2,-1,-2,0,-1,0,-1
,-2,-3,3,-5,0,-1,0,-1
,-1,1,-1,0,-1,-2,-1,-1
,-1,-2,-5,-3,0,-2,-1,-2
,-2,0,-3,-1,-2,0,-1,-2
,0,1,3,2,0,0,-1,1
,-1,0,-6,0,-3,-1,-4,0
,0,-2,1,1,-1,0,0,-1
,0,0,-6,-2,0,0,0,-1
,0,-1,-2,0,1,0,0,-1
,-1,0,1,-1,0,-1,-1,0
,-3,-2,-3,-2,-1,-1,-1,-1
,-1,-1,1,1,0,0,0,-1
,-1,-1,6,-3,-1,0,-1,-1
,-1,0,5,-4,-1,-1,1,-1
,-2,2,-2,2,-1,-1,0,0
,-1,-3,0,-4,-2,-2,-1,0
,-1,-1,-4,0,-1,-2,-1,-2
,0,-2,3,-3,-1,-2,0,1
,-1,0,7,3,0,-2,-2,-1
,0,0,-5,1,0,1,-1,-1
,0,-1,2,-3,-2,-1,-2,-1
,0,0,-2,0,-1,0,-1,-1
,0,-1,-3,-3,-2,-2,0,-1
,-1,-2,2,0,-2,-2,-1,0
,-1,-3,-10,0,-1,0,-1,-1
,-2,-1,9,0,-1,-2,-2,-3
,-2,-1,-1,-4,-1,-1,-1,-1
,-2,-1,-4,-1,-1,-1,0,-1
,-2,-4,-24,-2,-1,0,0,-1
,-1,0,4,4,-1,-2,0,-1
,-1,-1,-2,-5,-4,-1,0,-2
,-2,-3,-2,-3,0,-1,0,0
,-1,0,5,1,-1,-1,-3,-1
,0,-3,-4,-1,-1,0,-2,0
,2,-3,-5,0,-1,1,1,0
,0,0,5,0,-2,-1,-1,-1
,0,-2,0,-2,0,-1,-2,-1
,-1,-1,-10,-2,-2,1,0,-2
,-1,1,-4,0,-1,0,-1,-1
,-1,0,-2,-2,0,0,-1,-2
,-2,-1,-4,-1,1,0,1,0
,-2,-4,-2,-2,0,-3,-2,-1
,1,0,1,1,-1,-1,0,-1
,-1,-2,-5,-3,-1,-1,-1,-1
,0,3,23,3,0,-1,-1,-1
,-1,-4,-28,-3,-2,0,0,-2
,-2,-1,5,0,0,0,0,-1
,-2,-1,-3,-2,-1,0,-3,-1
,1,0,2,-1,-1,-1,0,-1
,-2,-1,6,1,0,0,-1,-2
,-2,-1,-6,1,0,-1,-1,-2
,0,-1,-1,-1,0,0,-1,-2
,-1,-2,-5,-3,-1,0,-1,-1
,0,0,1,-1,-1,-2,-1,-1
,1,-1,-5,0,-2,-2,-2,0
,-1,1,3,-3,-2,-2,1,-2
,-1,1,1,-3,1,1,-1,0
,1,-1,3,0,-3,0,1,-1
,-2,-3,2,1,-2,0,-2,-1
,-1,-2,0,-6,0,-2,-1,0
,-1,-3,-6,-2,-1,-1,0,-1
,0,1,-1,0,1,-2,0,1
,-1,0,-5,0,0,-4,-4,-1
,-2,0,16,3,-1,0,0,0
,-1,-1,-8,0,0,0,0,0
,-1,-3,-1,-1,0,0,0,-1
,0,-1,-3,-1,-1,-1,-1,0
,1,-1,-8,1,-2,-1,-2,-1
,-1,0,4,-1,-2,-1,-1,1
,1,-1,-4,-1,1,-1,-1,1
,-1,-1,0,1,0,-1,0,-2
,-1,-3,-11,-1,-1,-1,0,-1
,1,2,4,-1,-4,0,0,-2
,-1,1,-5,-2,-1,1,-3,0
,-1,-3,-3,-3,-2,0,-1,-1
,-1,-1,-1,-2,-1,1,-2,-2
,1,-2,14,-2,-2,-2,0,-2
,-1,-4,-30,-4,0,-1,1,-2
,-2,0,-5,-3,1,-2,-2,0
,-1,-2,0,1,-3,-2,-1,-1
,0,-5,-3,-2,-2,-1,0,-2
,-1,1,2,-1,-2,-2,-2,-1
,0,0,0,1,0,0,-2,-1
,-2,-3,1,-4,-2,-3,-2,-1
,-2,-1,-12,-2,1,-1,0,-1
,-3,-2,-3,-1,-1,-2,0,-3
,0,-4,6,0,-1,0,1,0
,0,2,3,-1,-2,-2,-1,0
,-1,-1,-17,-5,-1,-2,0,-1
,0,-1,2,2,-1,0,-1,-2
,0,-2,-5,-1,-1,1,-1,-2
,-2,1,4,-1,-3,-1,-1,-2
,-1,-2,-4,-1,0,-1,-1,-2
,-2,-2,6,-1,-1,-1,0,0
,-1,-2,-8,0,-1,-1,-2,-1
,0,0,0,-5,-1,-2,-3,0
,0,-3,2,-1,-2,-1,0,-1
,-1,0,-5,-2,1,-3,-1,-1
,-1,3,1,-2,-1,0,-2,-1
,-3,-7,-5,-2,0,0,0,-2
,-1,-1,-1,-3,-1,1,0,-1
,0,-1,-3,0,-2,-1,0,1
,-1,0,-2,-1,-1,-1,-1,-2
,0,0,-1,0,-2,0,1,-2
,-1,0,-4,0,-2,-3,0,-1
,0,-2,-5,-2,0,-1,-2,0
,-2,-2,1,1,0,0,-2,0
,-1,-1,-3,0,1,0,0,0
,-2,0,4,0,-1,0,-2,-2
,-1,-1,15,-2,-1,-1,-2,0
,-1,-3,-21,-2,-3,-2,-1,0
,0,-2,0,-1,-1,-1,-2,0
,-1,-2,-5,1,2,0,-1,0
,-1,3,0,-2,-2,-1,-3,-2
,-2,-3,-2,-3,-1,0,0,-1
,1,-3,-5,-1,0,-1,1,-2
,-1,-3,-2,0,-1,-2,3,0
,-1,1,0,0,-1,-1,0,1
,0,1,2,-1,0,-2,-2,0
,-2,-1,-16,-1,0,-1,-1,-1
,0,2,6,1,0,1,-1,0
,0,-1,-3,-1,0,0,0,-1
,2,2,1,0,-3,-2,-1,-1
,-1,-1,4,2,-1,0,-3,1
,-1,-1,-7,0,-1,-1,-3,0
,-1,-1,-1,-3,-1,-1,-1,-1
,-2,-3,2,-2,-3,-1,-1,-1
,0,-2,-3,-6,-2,-2,0,-1
,-1,-2,-2,-1,0,-1,-2,0
,-1,-1,14,1,-2,-1,-2,0
,-1,-2,-13,-4,-2,-1,-2,-2
,1,0,-2,2,-2,-2,-1,0
,0,-1,6,1,-1,-1,0,-2
,-2,-3,-1,-2,-1,0,0,-1
,-1,0,-3,-1,0,-2,-1,0
,-1,2,-4,0,-2,-1,0,1
,-1,-1,0,-1,-1,-2,0,0
,-1,-2,-3,-3,-1,0,-1,-1
,-2,-1,5,0,-1,1,2,-1
,-1,-2,-7,0,-1,-1,0,-1
,-1,-3,-11,-3,1,-1,1,-1
,0,5,14,4,-3,-4,-2,-4
,-1,-3,0,1,-1,-1,0,0
,-1,0,-4,0,0,-1,-1,0
,0,-1,1,0,-1,-2,-4,-1
,-2,-1,0,22,-1,-3,0,-1
,-2,0,-1,33,-1,-1,-1,-1
,-1,-1,2,18,-3,-3,0,-1
,0,0,-1,6,-1,0,0,-1
,0,-3,-2,-16,-1,1,0,0
,0,0,4,-20,0,-1,-1,0
,-1,2,21,-10,-1,0,-1,-3
,0,0,-1,-9,-1,2,0,1
,-1,-2,-9,-11,0,1,0,-1
,0,-1,13,-4,0,-2,0,1
,-1,-2,-14,-6,-1,0,-1,-2
,-1,-2,-3,-3,-2,-1,-1,-1
,-2,-1,1,-3,-1,-1,0,-2
,-1,-1,2,-1,-1,-1,0,-1
,0,-1,-8,1,-2,0,0,-1
,-1,3,10,-2,-1,0,-1,-2
,0,-1,1,-3,-1,0,0,0
,-2,-1,0,-2,-3,0,-1,-1
,-2,-2,-3,0,0,-1,-2,-1
,-1,-3,-9,-1,0,0,-1,-2
,-1,3,1,-1,-1,-1,-1,1
,-1,-4,4,1,-1,-3,-2,0
,-2,-3,-11,-3,-2,-2,-2,1
,-1,-2,-6,-1,-1,1,1,-2
,-1,1,8,1,-1,-1,-2,-2
,-1,1,1,-2,-1,0,0,-1
,0,0,1,1,1,0,-2,1
,-1,1,-5,1,-1,-1,0,0
,-1,-2,-3,1,-3,-1,0,-1
,0,0,0,-3,-3,-3,0,1
,0,0,4,1,-1,-2,0,-1
,-2,-3,-13,-1,-1,0,-2,-2
,1,-2,0,-1,0,1,0,-1
,-1,2,4,-3,-1,0,0,-1
,-1,-1,-11,0,0,0,-1,-2
,-1,-4,-3,-2,-2,0,-2,0
,-1,0,3,0,-1,-1,-1,-1
,-1,-2,-2,0,-1,-1,-2,-2
,-2,0,-6,-1,0,0,-1,-1
,0,2,5,-1,0,-2,-1,-2
,-1,-5,-13,-3,-1,1,1,0
,-1,0,3,0,0,-2,-3,-1
,0,0,3,-1,-1,0,-1,-2
,0,-1,-3,2,1,-1,-4,1
,0,-1,-13,-4,-3,-1,-2,-2
,-1,-1,-2,-2,0,-1,0,-2
,-1,0,4,1,-1,-1,-1,0
,0,-1,-7,-3,-1,-1,0,1
,-2,-2,-3,-2,-3,-1,-1,1
,1,0,-3,-1,-4,0,-2,0
,-2,-1,-1,0,-3,-3,-1,-1
,-2,1,-6,-2,-1,1,0,-2
,0,2,7,0,-1,-2,-1,-2
,-1,0,-5,-1,0,-1,0,0
,-2,-3,4,-1,-1,0,-1,-2
,-1,0,9,-1,-1,0,-2,-3
,0,-1,6,-1,-1,-1,-1,-2
,0,-2,-18,-3,-1,-3,-2,-1
,-3,-5,0,-1,0,0,-1,0
,-1,-1,-3,-2,0,-1,-1,0
,0,0,10,1,-1,-2,-2,0
,-1,-1,-4,1,-1,0,-2,-1
,1,0,3,2,-3,-1,-1,-2
,-1,-4,-8,-2,1,-1,0,0
,0,0,0,0,-1,1,-2,-1
,-2,-1,0,2,0,-1,-1,1
,-2,0,1,-3,0,-1,-1,-1
,0,0,-10,1,1,-4,-1,-1
,-2,-1,3,-3,-1,-3,-1,-1
,0,-1,-1,1,-3,-3,-1,-2
,-1,0,-9,-1,0,-1,0,-2
,-1,0,3,0,-1,3,-2,-2
,-2,-2,-6,-3,0,2,0,-1
,0,0,4,-2,-2,0,0,-2
,0,-1,0,1,-2,0,0,-2
,-3,-1,-8,-2,0,0,-1,-1
,-1,-2,-3,1,-1,-2,-1,1
,0,0,7,-2,0,-2,1,-1
,0,0,-3,-2,-1,0,-1,0
,0,-3,1,-2,-1,2,-2,-1
,-2,3,8,3,-3,1,-3,-3
,-1,-4,-7,-4,-2,1,-2,-2
,-1,-2,-5,-4,-1,2,-1,-2
,0,3,5,2,-2,-2,0,-5
,0,-1,-2,-3,1,-1,-1,-4
,-1,-3,-8,-2,0,-3,-2,-5
,-2,-1,15,-1,-1,-2,-2,-5
,-1,0,-8,1,-2,0,0,-4
,1,-1,10,-2,-1,-1,0,-5
,-1,-2,-9,-1,-1,-1,0,-4
,-1,2,2,0,0,-2,-1,-5
,0,-2,-1,-3,-1,-3,0,-3
,0,0,-3,1,0,-2,0,-2
,0,1,0,-1,-1,-2,-1,-1
,-1,-1,-5,-4,-2,-2,-1,0
,-2,0,11,2,-3,-1,-1,0
,-1,-2,-7,-4,0,-2,-2,3
,-2,-2,-4,1,-1,-2,0,2
,0,1,5,-1,-1,-2,-2,2
,0,0,4,-1,-1,-2,-3,2
,-1,-3,5,0,0,0,-1,2
,-1,0,-16,-2,-1,-1,-1,1
,-1,0,0,3,0,-1,-1,3
,-2,-1,4,-1,-1,1,2,2
,-1,-1,-11,-1,0,1,-1,1
,-4,0,0,-1,-2,-1,-2,0
,0,-2,-1,-1,-2,-2,-1,0
,0,1,7,0,1,0,1,-2
,-1,0,-18,-1,-1,-2,-1,-1
,0,-1,11,-2,-1,-4,-2,0
,0,-3,-7,0,-2,-4,0,-1
,0,2,7,-2,-1,-2,-2,-2
,0,4,6,1,-3,-1,-1,0
,-1,0,-1,-1,0,0,-1,-1
,-2,-2,-18,0,0,1,-1,1
,-2,-1,-4,1,0,1,-2,1
,-1,-1,-4,-3,-2,-1,-1,3
,0,1,2,1,0,1,-1,1
,-1,-2,2,0,0,-2,-2,1
,1,-2,-12,-1,-1,-1,0,1
,2,4,12,0,0,-1,0,0
,-3,-6,-5,-1,-1,0,-2,0
,0,1,-4,0,-2,-1,0,-1
,-1,-1,8,-1,-1,-3,-1,1
,-2,-3,-23,-4,1,-2,0,1
,1,1,3,0,-2,-2,-2,-1
,-1,-1,2,3,0,-2,-2,-2
,0,0,-4,-1,0,-1,0,0
,-1,-1,7,0,0,0,-1,-2
,0,-2,-11,-4,-1,-1,-1,-1
,-2,-3,3,2,-1,0,-1,-1
,0,2,1,5,1,-1,0,-2
,-1,0,2,-1,-2,-2,-3,-3
,0,-1,0,0,-1,-1,-2,-1
,-1,-3,4,0,-2,0,0,0
,-2,-1,-17,-5,0,-1,-1,0
,-2,-2,-1,1,-4,-1,0,-1
,0,0,3,3,-1,0,-1,-1
,-1,0,-2,-5,-2,-1,-1,-1
,-1,-1,-3,-1,-1,-2,-1,-2
,1,0,8,5,0,0,0,-2
,-2,-3,5,-6,-2,-1,-1,-3
,0,-2,-6,-2,-1,0,0,-1
,-3,-1,2,-2,0,0,0,2
,-2,0,7,0,-2,-1,-2,1
,0,1,-25,0,2,-1,0,1
,-1,-3,2,-3,-1,0,-2,0
,-2,0,8,1,-2,0,-1,-3
,-1,0,-9,0,0,-1,-2,-1
,-2,0,4,-2,-4,-4,0,-2
,-1,-5,-26,-6,-2,0,-2,-2
,-2,5,33,7,0,2,0,-2
,0,2,-5,-6,-2,1,-2,-1
,1,-2,-7,0,0,2,-1,0
,-3,-3,2,-7,-4,-1,-1,-3
,-1,-4,-14,0,0,1,0,-1
,-2,-1,6,1,0,-2,-1,-1
,0,2,3,1,0,0,-1,-1
,0,-2,-2,-4,0,-1,-1,-1
,-1,-5,-21,-4,-2,-1,-2,-1
,0,1,11,4,0,1,-1,0
,-2,-6,-4,-1,-1,-1,-2,0
,0,-1,4,-3,-2,-2,0,-2
,-2,2,10,0,0,-1,-1,0
,-1,-2,-7,1,1,-1,-1,-1
,-2,1,-7,1,-1,-2,-2,-1
,-2,1,5,1,0,-1,-1,-1
,-1,-3,-3,-3,-1,0,-2,-2
,-2,-2,-9,-2,-1,-1,0,-1
,0,-2,-2,-2,-3,-3,-2,-2
,-1,-2,-1,3,0,-2,-1,-1
,-1,-3,-14,-3,-1,-3,0,-1
,0,0,-7,-1,-2,-2,0,0
,0,-1,-5,-1,-2,-3,-1,-1
,-1,2,11,0,-1,0,-3,0
,-2,0,-2,2,-1,0,0,1
,-2,-3,-5,-1,0,1,0,-1
,0,1,3,-3,2,1,0,0
,-1,1,1,0,0,2,-2,-1
,-1,1,19,3,-2,0,0,0
,-2,-1,0,-3,-3,-4,-1,-1
,0,-2,-7,-2,-2,1,-1,0
,-2,0,-1,-3,0,0,0,-2
,-2,0,-2,1,-1,1,-1,-3
,0,-2,0,1,0,-1,1,-1
,0,-2,3,-2,-1,-2,-1,-1
,-1,-3,-4,2,0,-1,-1,-1
,-3,0,-1,-2,-2,-4,-2,0
,-2,2,0,2,-1,-1,-1,-1
,0,-3,-7,-3,-1,-1,-1,-1
,0,1,2,2,-1,-1,0,-1
,-1,-2,-8,-1,0,-1,-1,-1
,-2,4,14,-2,-1,-2,-1,-2
,-1,-2,-3,0,-2,-1,0,-2
,0,2,10,1,-1,0,-1,0
,-1,-2,-18,0,-1,0,-2,-1
,0,-1,-3,-1,-1,0,-2,-1
,0,-3,-4,-2,2,0,0,0
,0,-5,-2,-3,-2,0,-1,0
,-1,0,-2,0,-1,-1,-1,0
,-1,-2,-1,0,-1,0,-1,-3
,-1,1,-2,-2,1,-1,-1,-1
,-1,1,9,-2,-1,0,-1,1
,-3,-4,-4,-1,-1,-1,0,0
,-1,-3,-6,-3,-2,-1,-2,-1
,0,-1,13,2,-2,-2,-2,-1
,2,3,-10,-1,-2,-2,-1,-2
,-2,-1,-6,1,-2,0,-1,-1
,0,2,-4,-1,-1,-2,-1,0
,-1,-1,1,-1,-1,-1,-1,0
,-1,-2,2,0,1,0,0,0
,0,-1,-3,-2,-2,-1,-1,-1
,0,1,3,-2,-2,-2,-1,-1
,-1,-4,-5,-2,0,-1,-2,-2
,-1,-3,-4,0,0,0,-1,-1
,0,-2,-3,-2,0,0,0,-1
,1,3,7,0,1,0,-1,0
,-3,0,-6,1,-1,0,-1,0
,-3,-1,14,0,0,0,1,-2
,0,-1,-17,-7,-3,-1,0,-1
,-1,-4,-4,1,1,-1,-2,-2
,1,2,1,-1,-1,-1,-1,0
,-2,-3,1,-1,-1,1,0,0
,-2,0,1,1,0,0,-1,-1
,0,-1,4,0,-2,-2,-1,-2
,-1,-4,-2,-2,-1,-2,-1,-2
,-3,0,-4,0,-1,-2,-1,-2
,-1,0,1,2,-2,0,-2,-2
,0,-1,-4,-4,-1,1,-2,0
,-2,-3,0,0,-1,0,1,-2
,0,1,4,2,-1,0,0,0
,-1,-2,-17,-2,-2,0,0,-2
,-2,0,7,3,-2,-2,-2,-2
,-1,-2,2,-3,-2,-1,-2,-2
,-1,-2,-4,0,-1,-1,-1,0
,0,0,14,-1,1,-1,0,0
,-1,-1,-31,-1,-2,1,-2,-1
,0,-1,-5,-1,-1,-2,-1,-2
,0,-1,0,-1,-1,-2,-2,0
,-2,-3,-10,-1,-1,-1,-1,-2
,0,-1,-14,-1,-2,0,1,-3
,-1,-2,-13,0,1,2,0,0
,0,0,6,1,-1,-1,-1,-1
,-2,-2,-11,-1,0,0,-2,-1
,-2,0,10,1,-1,-2,-2,0
,-1,0,8,-2,-1,2,-1,0
,-2,-4,-9,-4,0,-1,-2,-2
,0,5,14,2,0,0,-2,-1
,-1,-1,-1,-4,-1,-1,-1,-1
,1,-2,0,0,-2,-2,-3,0
,-1,-1,2,-2,-1,-2,0,0
,0,-2,-4,-3,-1,-3,0,-1
,-3,-1,-6,0,-1,0,-1,-1
,-2,0,9,-5,-2,-1,-1,-1
,1,1,-4,-1,1,0,0,-1
,-1,0,2,0,0,-1,-1,-3
,-1,-2,-3,-2,-2,0,1,0
,0,-1,2,-1,-1,-1,0,-1
,0,-3,-14,-3,-2,0,-2,0
,0,4,1,0,-3,-1,-1,-2
,-3,-2,3,4,0,-1,-1,-3
,0,1,-4,-3,-2,-1,-1,-1
,0,-1,5,0,-1,0,-1,0
,-2,-3,-6,-1,0,1,0,1
,-1,-2,-5,-2,0,-1,0,0
,0,-2,2,-2,1,-1,-1,-1
,0,0,1,0,-1,0,-1,0
,0,-4,-5,-1,-1,0,-1,0
,1,3,-2,1,-1,-1,-2,-2
,-1,0,14,-1,-1,-2,-1,-3
,-1,1,-1,0,-3,-2,-1,0
,-1,-4,-2,-3,-1,0,0,0
,-1,1,11,0,-1,0,0,-1
,1,-1,-24,-1,-1,0,-1,-1
,0,-1,0,-5,0,1,-1,0
,-1,0,1,1,0,-1,0,-2
,0,-2,0,1,1,-1,0,-2
,0,0,-8,-1,0,1,-1,-1
,-3,-1,-6,-1,0,-1,-1,-2
,0,-1,9,1,-2,0,-1,0
,-1,-1,5,-1,-1,-2,0,-1
,-1,1,3,0,-2,-2,0,-2
,0,-3,-4,-1,-1,0,0,0
,-1,0,-1,-4,0,0,1,0
,-1,-3,-3,1,1,-1,-2,-2
,-1,0,-2,-1,-2,1,-1,-2
,-1,-2,2,0,0,-2,-1,-3
,-1,-4,-2,-1,-2,-2,0,1
,-1,0,-1,-1,-1,-3,0,-1
,0,-1,4,0,-1,-3,-1,-1
,1,3,11,-1,-2,0,-1,0
,1,-2,-4,-2,-1,-1,0,0
,-1,-2,0,3,0,-1,-2,-1
,-1,-2,-1,-4,-1,-1,-1,0
,-2,-3,-7,-2,-2,-1,-1,-2
,-1,-1,1,1,0,-1,0,-1
,0,3,2,-2,-1,-2,-1,-2
,-1,-1,-5,2,-1,-1,-1,2
,0,1,2,-1,-1,-2,-2,-2
,-2,-1,-2,-2,-2,0,-3,-1
,0,-2,-3,-1,-1,0,-1,-1
,-1,-1,-5,2,-1,1,1,-2
,-1,-1,-2,-1,0,-1,-1,0
,1,0,1,0,0,1,0,-1
,-2,-2,-1,-2,-2,-3,0,0
,-1,-1,9,1,-1,-1,-2,-2
,-2,-2,-8,1,-1,0,-1,-1
,-1,1,0,-1,-1,-2,-1,-1
,0,-3,-6,-5,0,1,-1,-1
,-1,0,-3,2,0,-2,-2,1
,-3,-1,2,-4,-1,-1,-1,0
,0,0,5,-3,-1,-2,-2,-1
,0,-2,-8,-2,-2,-1,-2,0
,0,-1,11,0,0,1,1,0
,0,-1,-15,-2,-1,-1,0,-1
,-3,0,-4,-1,-1,-2,-2,-2
,-1,0,-4,0,0,-2,0,-2
,-1,0,-3,-1,-2,1,-1,-2
,0,-3,-5,-2,-1,1,1,0
,-1,-3,0,0,-2,-1,0,-1
,-1,1,-11,2,-2,0,-1,0
,-1,0,11,0,0,-2,0,-1
,1,1,-2,1,-2,-1,-1,0
,-1,-3,-2,-2,-2,-3,0,-2
,0,-1,-8,1,0,0,-2,-1
,-1,-2,1,-1,1,-2,-1,-1
,-1,-1,-11,-4,-1,-2,-2,-2
,-1,-2,-8,-2,-1,-2,-1,0
,-2,-7,6,-2,-1,-1,-1,-1
,-1,3,-1,1,-1,-2,-1,-1
,0,-1,-3,-1,0,0,-2,0
,-1,-1,-3,1,-1,1,-1,-1
,-2,0,13,-5,-2,-1,-1,1
,2,1,-8,-2,-1,-2,-1,0
,-1,-2,5,0,0,-3,1,-1
,0,-1,-3,-1,-1,-1,-1,-1
,-2,-1,-4,2,-1,0,-1,0
,0,-1,-6,0,-1,0,0,-2
,-1,-2,0,1,-3,-2,-1,-2
,-2,2,3,-2,-1,-2,-1,-1
,0,-2,0,0,-1,-1,-2,-3
,-1,-2,-16,-5,-3,-3,-1,-1
,0,-1,3,5,0,1,-2,-1
,0,-2,-4,-2,-1,0,1,-3
,-1,0,-2,-2,0,0,-2,-1
,0,-1,7,2,-1,0,-2,-1
,-1,0,-1,0,1,-2,0,0
,0,-2,3,-1,-1,-1,-1,-1
,0,0,-5,-1,-1,0,-1,-1
,0,0,0,0,-3,-1,0,0
,-2,-4,-1,-2,-1,0,0,-1
,-3,0,8,0,-1,-2,0,-2
,0,-2,-2,-3,-1,-2,-2,-1
,-1,0,-1,0,0,-1,-3,-1
,0,0,11,-2,0,-2,-1,-1
,0,-2,-25,0,1,-2,-1,0
,-1,0,-6,-1,-3,-1,-2,-1
,0,-2,-3,0,1,0,0,-1
,0,0,-4,-3,-1,0,0,-2
,-1,-2,-5,-1,-1,-1,-2,-2
,-1,0,-10,0,-1,1,0,0
,0,0,7,-2,-1,-1,0,-1
,0,-1,-1,-1,-1,0,-2,-1
,-1,-1,5,-2,-1,-1,-1,-3
,0,0,-4,0,0,1,0,0
,-1,-4,-8,-1,-1,-2,-1,-1
,-2,2,21,0,-1,-1,0,-3
,-1,-2,3,-3,-1,0,-1,0
,0,0,-9,0,-2,0,0,-1
,-1,-2,7,-1,-1,-1,-1,-1
,0,2,1,1,0,-3,-1,1
,-1,-1,-2,0,-1,0,-1,-1
,-2,-3,-2,-1,1,-1,-1,-1
,-2,2,9,1,-4,-3,-2,-2
,1,1,0,-1,-1,-1,0,-1
,-1,-2,1,1,-2,-2,-2,-2
,-1,1,2,-1,-1,-2,-1,-1
,-1,3,7,-3,-1,-2,-2,-2
,0,-3,-6,-1,-2,-2,-1,0
,-1,-1,-9,-1,-1,-1,-2,-1
,-4,0,7,-4,-4,-2,0,-1
,0,-1,2,1,0,2,-1,0
,-1,-3,-2,-2,-2,-1,-2,-1
,0,-3,-2,-2,1,-2,-2,-1
,-2,-1,-1,1,-1,0,0,0
,0,-2,-8,-2,-2,0,-2,-2
,0,2,14,-1,0,-2,-1,0
,-1,0,2,-1,-1,-2,-1,0
,0,0,-6,3,-1,-1,-1,-1
,0,-1,-3,-2,-2,-1,-1,-1
,0,0,3,2,1,-1,-2,-2
,-3,-4,3,-1,0,-1,1,-2
,-2,0,-3,-4,0,-1,1,0
,-1,-1,4,0,0,0,-2,-1
,-2,-4,-9,-3,-2,1,0,-1
,1,1,8,2,-3,-2,-2,0
,0,-1,-6,-3,-1,0,0,-1
,-2,-5,-7,-1,1,-2,-2,-2
,1,0,-1,0,-1,0,-1,-1
,1,3,2,3,1,-1,-1,-1
,0,-3,-4,-1,-1,0,0,0
,0,0,-1,-2,-3,-1,-2,-1
,-3,-4,-4,0,0,-2,-1,-1
,-1,0,-4,0,0,1,-2,-1
,-2,0,-4,-1,-1,-2,-1,-1
,0,0,0,-1,-2,-1,0,-2
,-1,-1,-13,-1,-1,0,0,-1
,0,1,6,-5,-2,-2,-1,0
,0,-2,17,3,0,0,-1,-2
,-1,-2,-27,-4,-2,-2,0,-1
,-1,-4,-3,-1,0,-3,-2,-1
,0,0,2,-1,-1,-1,1,-1
,-1,-3,-3,-4,-1,-2,-2,1
,-1,-1,4,0,1,0,0,0
,-3,-4,0,-3,-3,-1,-3,-3
,-2,0,-15,2,1,0,0,-1
,-1,2,14,-5,-2,-1,-2,0
,-2,-1,1,-1,-1,0,-1,-1
,-2,0,-5,4,-2,0,-1,-2
,-2,-1,0,-3,-1,0,-1,0
,0,-1,11,0,0,1,0,0
,1,0,-12,-3,-2,-2,0,-2
,0,-1,-5,-5,-1,-1,0,-1
,-1,0,3,-2,0,-1,-1,0
,-3,-1,-6,1,-1,-1,-2,-1
,-1,0,16,0,-2,0,-1,0
,-1,-2,-5,-2,-1,1,-1,0
,0,-3,-6,-1,0,0,-2,-1
,-2,-1,-6,0,0,0,-1,0
,-1,1,-5,1,0,0,-1,-1
,-1,0,5,-2,-3,-4,-1,-1
,0,-1,-5,0,-1,0,-3,0
,-2,-1,4,2,-2,-2,-1,-1
,0,-2,5,-2,-2,-1,0,0
,-1,0,-8,3,-1,0,-1,0
,-2,-1,-3,1,1,-1,-2,1
,-1,-4,-4,-4,-1,-1,1,-1
,0,-1,0,1,0,-1,0,-2
,-1,-1,2,-1,-1,-1,0,-2
,-2,-2,4,-1,0,-1,1,-2
,0,1,-8,0,0,0,0,0
,-2,-2,-1,-1,-1,-2,-2,-1
,-1,0,5,-3,-2,0,-1,-2
,-1,-1,3,3,-1,-1,1,-1
,0,-2,-17,-1,-1,-1,-2,0
,0,2,16,-4,-5,-2,-1,-1
,0,0,6,-1,1,-1,-1,-2
,-2,-5,-24,-4,0,0,-2,-2
,-2,-3,3,-2,-2,-2,-1,0
,-1,0,-1,2,-1,0,0,0
,-1,0,-6,0,1,0,0,0
,-2,0,5,0,-1,0,0,0
,2,-1,2,2,-2,-1,-1,-1
,1,-2,-6,-1,-2,-2,-2,1
,0,-2,0,-1,-1,-1,-1,-2
,-1,1,-2,0,-1,0,0,0
,0,-1,-2,-3,-1,0,1,-2
,-1,-1,-5,-3,0,1,-1,-1
,-3,-3,-6,1,-1,-1,0,-1
,0,0,8,2,-1,-1,0,0
,0,2,7,-2,-2,-1,0,-3
,-1,-1,-6,-1,-1,0,0,-1
,-1,-1,1,-3,-1,1,0,1
,0,-1,-11,-4,-2,1,-2,0
,-3,-1,-3,1,-2,-1,-1,-1
,-2,0,4,-2,0,-3,-1,-1
,0,0,-1,0,-2,0,-1,-1
,-2,-1,10,-1,-1,-1,0,-2
,-1,-1,5,3,0,-3,-1,-3
,0,-3,-14,-3,0,-1,-2,0
,-2,-1,3,-1,-2,-1,-2,-2
,-3,-3,-1,-1,-1,-2,-2,-1
,-1,1,1,1,0,-1,-2,1
,-1,0,3,1,-2,-1,-2,-1
,-1,-3,-5,-2,1,-1,-1,0
,-1,-3,-17,-5,-1,-1,0,0
,0,0,3,1,-1,-1,0,-1
,-1,2,1,-1,-1,0,-1,0
,1,0,9,-4,-2,0,-2,-1
,0,-2,-14,0,1,-1,-2,1
,-2,-2,-4,0,-1,0,-2,-2
,-1,-1,0,-2,0,0,-2,0
,-1,0,-5,0,-2,-2,-1,0
,-1,-2,4,0,-3,-2,0,-1
,0,-1,-4,-1,-1,-1,-1,1
,-1,-1,2,-4,-2,-1,0,-2
,-1,1,-4,-2,-1,-2,-1,-1
,1,1,5,4,0,0,-1,-3
,-2,-4,-10,-3,-1,1,-1,-1
,-1,0,1,1,0,-2,-1,-1
,0,-1,-7,0,-2,-1,-1,-2
,-1,0,6,-3,0,0,-1,-1
,0,0,3,1,-1,0,-2,-1
,-1,-3,-10,-1,-1,1,0,-2
,-1,-4,1,-3,-1,0,-1,-2
,-1,1,5,0,-2,-2,0,1
,-1,-2,3,-3,-1,0,0,-1
,0,-2,-2,-1,-2,0,-1,0
,-1,1,5,2,-1,0,1,-2
,-1,-3,3,0,-1,-1,0,-2
,1,1,8,-2,0,0,0,0
,-2,-1,-6,-1,-1,-1,0,-1
,-2,-4,-9,-2,-1,0,-1,0
,-2,-2,6,-2,-3,-1,-2,-1
,-1,0,-10,-1,-1,-2,0,-2
,1,-1,1,-1,0,-2,0,-1
,-1,-2,-5,-2,0,0,0,0
,0,0,1,-2,0,-3,-2,-1
,0,-1,4,4,0,-2,0,-2
,-2,-3,-3,-3,-2,-1,0,-2
,-1,-2,2,0,0,0,-1,0
,1,0,-14,-1,-1,-1,0,-1
,-1,-5,-8,-1,-2,-3,0,0
,0,1,7,1,0,-1,0,-1
,1,-1,-2,-1,-1,-1,-2,0
,0,-3,-4,-4,-1,1,-1,-2
,1,1,1,-1,-2,-1,-1,-1
,-1,-2,-6,3,-1,-2,-2,-2
,-1,0,-1,-4,-1,-1,-2,-1
,-2,-2,1,1,0,1,-1,-1
,-1,0,10,0,0,-1,-1,-2
,-1,-2,-9,-1,-1,-1,-1,-1
,-1,2,0,3,0,0,0,-2
,-2,-3,6,-3,-2,-1,0,0
,-1,-1,-1,-1,-1,1,-1,-1
,-1,2,6,-1,0,-1,-3,1
,-2,-4,-9,-2,-1,-1,0,0
,0,-1,0,0,-1,-3,-2,1
,0,-1,-5,-2,-2,-1,-2,0
,-1,-2,0,-1,-1,2,-1,0
,1,-2,-3,-2,-3,0,-3,-1
,-2,2,9,2,1,0,1,-1
,-1,-3,-5,-5,-1,-1,0,-1
,-1,-2,10,1,0,-2,-1,0
,-1,-1,-22,-1,1,0,0,-1
,-1,1,0,-4,-1,-2,-3,-1
,0,-1,5,1,1,0,-1,-1
,0,1,13,-2,-1,-1,-1,-3
,0,0,5,5,-1,-3,1,0
,-1,-2,-6,-1,-3,-1,-3,-1
,-1,-2,-8,0,-1,-2,1,0
,-1,-5,-6,-2,-3,-1,-2,-1
,-1,0,3,-1,1,-1,0,-1
,1,0,-1,-1,-2,0,-1,-1
,1,1,1,-2,-1,0,0,-1
,-2,-2,-8,-1,-1,-1,-1,0
,-1,1,22,0,-1,-2,-1,-1
,-2,1,-30,-2,1,-2,2,-1
,-3,-2,1,-3,-1,1,1,0
,-2,-2,-11,0,-1,0,0,0
,1,-1,-1,-1,-1,1,0,0
,-2,1,18,1,0,0,-2,-1
,-3,0,3,-7,-2,-1,-2,-3
,0,-4,-7,0,0,0,-2,-2
,-2,0,-3,-1,-1,-4,-1,-1
,-2,-1,1,0,-2,-1,-2,-2
,0,0,-4,0,-1,-2,-2,-1
,-3,-1,-4,-1,0,-1,1,2
,-1,1,5,-5,-4,-3,-2,-1
,0,-2,7,1,-1,-1,1,-1
,-2,-1,-12,-2,-1,0,-3,1
,1,0,-2,1,2,0,0,-1
,-3,-4,-4,-2,-1,1,0,0
,-2,-1,0,-2,-1,-3,-1,-1
,-1,-3,-7,3,0,-1,-2,-2
,0,0,8,-2,-1,0,0,-3
,-2,-2,-4,0,0,1,1,0
,1,0,-1,0,-3,0,-1,-1
,0,-1,-2,0,1,0,-3,1
,0,2,-1,-1,-2,-1,0,0
,-1,-3,-3,-3,-2,-2,0,-2
,-3,0,3,0,-1,-2,0,-1
,-1,-2,-3,-1,-1,-2,0,-1
,0,1,1,-5,-4,-3,-2,-1
,-1,-2,2,1,-1,0,-2,-1
,1,1,4,0,0,-2,0,-2
,-1,-2,-7,-1,0,-2,0,0
,1,0,5,1,-1,1,-1,-1
,0,-1,-1,-1,-2,0,-1,-2
,0,-3,-1,2,-2,-2,0,-1
,0,0,-3,-1,-1,1,0,-1
,-1,-3,3,-2,-2,0,-1,-1
,-1,1,-16,-2,-1,-3,0,-1
,-1,1,3,-2,-1,-1,-2,-2
,-1,0,-6,-1,1,1,-2,-2
,-1,-1,1,-2,0,-2,-1,0
,0,-2,3,-1,-1,-1,-2,-1
,-3,-1,0,-3,-2,-2,-1,-1
,1,0,-1,1,-3,-2,-2,-1
,-3,-3,-16,-9,0,0,0,0
,0,-1,4,-13,0,-1,-1,0
,-2,0,-1,-8,0,0,0,1
,-2,-1,8,-6,-2,0,-1,-2
,0,-1,-6,4,-1,0,-1,-1
,-3,-2,3,5,-1,-1,0,0
,-1,-3,-2,3,0,0,-1,-1
,-1,3,-2,6,0,-3,0,-1
,0,1,14,4,-2,0,1,0
,0,-2,-24,2,-1,-1,-1,-1
,0,-2,1,4,1,-2,0,0
,-1,-4,-11,1,-1,-1,-2,0
,-1,-2,-4,2,2,-1,0,0
,0,-1,-7,-1,-2,-1,-1,-1
,0,2,6,3,0,-1,-2,-1
,0,-1,3,0,-3,-1,0,-1
,-2,-2,-9,-1,0,1,0,0
,-2,-2,-5,-1,0,-1,-1,-2
,-1,0,24,0,0,-3,-2,-1
,1,-1,-5,-1,-1,0,0,-1
,-1,1,-5,-2,-3,-2,-1,-1
,-2,-3,0,0,2,-1,0,0
,-1,-3,-1,-1,-1,-1,-1,-1
,-1,-1,8,0,1,-1,-2,-1
,-4,0,-2,-2,-1,1,0,-1
,-1,0,6,1,-3,0,-1,0
,-1,1,-13,-3,0,-3,-1,-1
,-2,0,0,-3,-2,0,-2,0
,1,-2,-7,0,-2,-3,-2,-1
,-1,2,14,-2,-2,-2,-2,-1
,-1,-2,-8,0,0,0,-2,-2
,0,-3,-11,1,-1,0,2,-1
,-1,-1,2,0,0,0,-1,-3
,-1,-1,0,-7,-1,-1,-2,0
,-1,-1,-11,-3,-2,0,-2,1
,-1,-1,9,-1,-1,0,0,-2
,-2,-3,1,0,-1,-1,-1,1
,1,-1,-3,0,-1,-1,0,-2
,-1,0,3,0,-2,1,0,-2
,-1,-3,-7,0,-2,-2,-1,-2
,2,4,8,1,-2,-1,-1,0
,-1,-4,-7,-2,-2,-2,2,0
,0,0,-3,-1,-1,-3,0,1
,0,-2,0,1,0,-1,-1,-1
,-1,-3,-11,-5,1,-2,-2,1
,0,2,28,3,2,0,-3,-1
,-1,0,-11,1,-2,-2,0,-2
,-2,-3,-1,-3,0,-1,-2,0
,1,-2,1,-1,0,-1,-1,0
,0,-2,-2,-2,-1,0,0,0
,-1,-3,2,0,-1,0,0,-1
,-1,0,2,1,-2,-1,-2,-1
,-2,2,-3,-1,-1,1,-2,-1
,-1,-4,-7,-3,-1,0,-1,0
,1,0,9,1,0,-2,-2,-1
,-1,0,-5,-3,-1,0,1,0
,-3,-3,0,0,-2,-1,-1,-1
,0,0,-9,-1,0,0,0,0
,-1,-2,-8,1,1,-1,-1,0
,0,1,14,0,-1,1,-3,-1
,-1,-1,0,1,0,-1,-1,-2
,0,2,-1,-1,-1,-1,0,-2
,-3,-5,-4,-5,-2,0,0,-1
,-2,-2,3,1,-1,-1,-1,0
,0,-1,-8,-1,-1,-1,-2,-2
,-1,0,-4,0,-2,-1,-1,-1
,-1,-4,-1,-5,1,-1,0,-2
,-4,-1,-3,2,1,-1,0,-1
,-1,1,2,-2,-2,-1,-1,-1
,0,0,-1,-2,0,0,0,0
,-2,-2,-2,-1,-1,-1,0,-1
,0,2,-8,-2,1,-1,-2,-1
,-2,-2,-12,0,-2,-1,-2,-2
,-1,-3,3,0,-1,-1,-1,-1
,-1,-2,-8,0,-1,-1,-1,0
,-1,-1,-2,-4,-2,-3,-1,-2
,-2,-2,5,0,-1,-1,-1,-1
,-1,1,-2,-1,-1,-1,0,-1
,1,0,0,0,0,0,-1,-1
,-1,-2,-1,1,-1,-1,-2,-1
,1,0,-1,-1,-1,0,-2,0
,0,-2,-11,-1,-1,-1,-1,-2
,-2,3,12,1,-1,0,-2,-1
,0,-3,-4,-2,-1,-1,-1,-1
,-1,0,-3,-1,0,-2,-1,1
,-1,-2,-2,0,-1,-1,1,-1
,-1,-5,-5,-3,-1,-2,1,-1
,-1,1,-1,1,-2,-1,-3,-1
,-1,-2,-2,-1,0,-1,-1,-1
,1,2,8,1,0,0,-1,-2
,1,1,0,-2,-2,-1,-2,-2
,-2,-3,-3,0,-1,-1,-1,-1
,1,-1,2,1,0,2,0,-1
,-2,-1,-1,-2,-2,0,-2,0
,-1,0,0,0,-2,1,0,0
,-1,-1,-11,-2,-1,-1,0,0
,-1,-2,-3,-3,-2,0,-1,-1
,1,-1,6,0,0,-1,-1,-1
,-2,-3,2,-2,-2,-2,0,0
,-1,0,-3,0,0,0,-2,0
,0,2,2,-1,-3,-3,-1,0
,0,-1,-3,-1,0,-1,0,-1
,-1,-3,-2,-5,1,-1,0,-1
,-1,-2,-4,0,0,-1,-1,-3
,0,4,16,3,-1,-1,-4,-2
,-2,-3,-7,-3,-1,0,0,0
,0,-3,-3,-1,-1,0,-1,-1
,-1,-3,2,0,1,0,2,0
,-1,-1,2,-1,0,-1,-1,0
,-1,0,1,-5,-3,-2,-1,1
,-2,-3,-6,2,-1,-2,1,-1
,-1,3,14,-2,-3,-3,-3,-2
,0,0,2,0,-2,-3,-1,-1
,0,-2,-7,0,-1,-1,0,-1
,-1,1,3,1,-2,-1,-1,0
,-2,-1,8,0,-2,0,-1,0
,-2,-6,-24,-2,-2,-1,1,-2
,-1,1,0,0,-1,-3,-1,-3
,0,0,4,-3,-1,-2,-2,-1
,-2,-4,-5,0,0,-1,0,-1
,-1,3,11,2,-3,0,1,-2
,-2,-2,-6,-3,0,-1,0,0
,-2,-1,-4,-1,-2,-1,1,0
,-1,-2,-5,-3,-1,-1,-2,-1
,-1,-4,4,-2,0,0,-2,0
,0,1,-1,0,-4,-1,-2,-1
,0,-2,2,-1,-1,0,-3,-2
,0,-3,-7,-4,-1,0,-1,0
,-2,2,2,1,1,-1,0,-1
,0,-1,0,-1,1,-2,1,-1
,-2,-2,0,0,-1,-1,-1,0
,0,-2,-8,1,-2,-1,1,-1
,-1,-2,-7,-3,0,-1,-1,-1
,-1,-2,7,-2,0,-2,-2,0
,0,1,3,2,1,-1,1,-1
,-1,-1,-20,-3,0,1,-1,-1
,-2,-2,1,-3,-2,-1,0,0
,-1,-2,0,2,-2,-1,1,0
,-1,-2,-5,-4,-2,-2,-1,-1
,-1,0,6,3,0,-2,-1,-1
,0,-3,-9,0,0,-2,-2,-1
,-2,-2,-3,-1,-1,-2,0,-1
,0,0,3,-3,-2,-1,-2,-2
,0,1,5,2,-4,-2,-1,-1
,-2,-4,-10,-2,0,0,-1,0
,0,-4,0,0,-1,0,-1,-2
,0,0,-1,-1,-2,-3,-1,0
,-2,1,-3,-1,-1,-2,-1,0
,0,3,6,0,-1,1,-1,-1
,-2,1,14,0,-1,1,-1,-1
,-2,-2,-32,-2,-1,-1,1,0
,-2,-4,9,2,-1,-1,1,-1
,-1,0,-2,-6,0,-1,2,1
,-2,-1,1,-1,-1,-1,0,-1
,1,-2,3,1,-1,-1,-2,-1
,-1,0,-2,-2,-1,0,0,-1
,-1,-1,-2,-1,-2,-2,-3,-2
,-1,-3,-1,-1,-2,-2,-2,-2
,-1,-1,-3,0,0,0,-2,-1
,0,-1,3,0,-1,-1,-1,-1
,0,1,20,0,-1,-1,0,1
,0,-1,-26,-1,0,-2,1,1
,0,-2,4,-5,0,0,-1,1
,-1,0,0,-1,-1,0,-1,-2
,-1,-1,-8,-1,0,-1,0,-1
,-1,1,15,-1,-1,0,0,-1
,-3,-1,3,1,0,-1,0,-1
,0,1,-2,0,0,-2,-2,-1
,-2,-3,-7,1,-2,-1,-1,-1
,-1,-3,-7,-6,-2,-2,0,-2
,-2,0,4,-3,-1,-2,-1,-2
,0,-1,-1,-4,1,0,0,-2
,-2,3,3,3,0,-1,-1,-1
,-1,1,4,1,0,-1,-2,-1
,-2,-2,-1,-1,-1,1,0,-1
,-2,-4,-5,-2,-2,-2,-1,0
,0,-2,3,-1,-1,-1,1,0
,0,-2,-25,-2,-1,0,-1,0
,-1,-3,-3,-2,0,-1,0,-2
,-2,-2,1,0,-2,-1,0,0
,-1,-3,-6,1,1,-2,-1,-1
,0,1,2,1,-3,-1,-2,-1
,0,2,1,-2,1,-2,-1,-1
,-2,-5,-1,-2,-1,-1,-1,0
,-2,0,-4,1,-1,-2,-1,-1
,0,0,-4,-1,-1,-2,-1,0
,-2,-2,-6,-8,-2,0,-1,-1
,0,4,18,3,-1,-2,-2,0
,-2,-3,-23,1,-1,0,-2,-1
,-1,-1,-7,-5,0,0,0,-2
,-1,0,1,-2,-2,-1,0,-2
,-1,0,4,1,-1,-1,0,-2
,0,-2,0,1,-1,0,-2,-1
,0,-1,4,0,-1,-1,-2,-1
,-1,-1,0,1,0,-1,0,0
,-1,-2,-10,-1,0,-3,-1,0
,-1,-1,15,-2,-2,-1,-1,2
,-1,0,-14,1,0,1,0,0
,-2,-1,10,2,1,-2,-2,-1
,0,-3,-17,0,0,-1,0,-2
,-1,0,-4,-3,-1,-1,-3,0
,0,-1,-2,-2,-2,0,-1,-2
,0,-2,-1,0,-1,-2,-1,-1
,0,0,5,-1,-2,-2,0,-2
,0,-1,-7,0,1,0,1,-1
,-2,-1,-2,0,-2,-2,-1,0
,0,0,0,0,-1,-1,0,-2
,-1,-1,-2,-2,0,-2,-2,-1
,-1,-1,-6,0,-3,-1,-1,0
,-1,-1,4,2,1,0,-1,0
,0,-4,2,1,-1,-1,0,-1
,-2,1,-5,-2,0,0,0,-4
,-1,-2,-3,-6,-1,-3,-1,-1
,0,-1,2,-1,-2,-1,-2,-1
,0,-1,-4,1,1,0,0,0
,-1,-2,-5,1,-2,0,-1,0
,-1,0,2,0,-1,-1,1,-1
,-1,1,3,-1,-1,-1,-1,0
,1,1,-9,0,0,0,-1,-3
,-1,-1,2,-1,1,0,-1,-1
,-2,0,-1,2,-2,0,-1,-2
,0,1,-3,-2,-3,-2,0,-1
,0,0,1,0,1,-1,0,-1
,0,1,-5,-1,-2,-1,1,-1
,0,-1,11,0,-1,-1,0,-2
,-3,-4,0,-1,0,1,0,0
,-1,-5,-4,-2,-1,1,-2,-1
,0,1,5,-2,-1,-2,-2,0
,0,0,9,2,-2,-2,-1,0
,-1,-1,-17,-5,-2,0,-1,-1
,0,1,-2,0,-1,-2,1,-1
,1,1,8,-3,0,-1,-1,-1
,-3,-3,-4,-3,-2,-1,-1,-2
,-1,-3,3,1,0,-1,-1,-2
,0,1,0,-3,-3,-2,0,0
,1,1,-11,-1,-1,-1,1,-2
,0,-2,3,-1,-1,0,-1,0
,-1,0,4,-1,0,-2,-1,-1
,-1,1,9,2,0,-2,0,-1
,-1,-3,-16,-3,-1,-1,-2,-2
,-1,0,-5,-2,0,-1,-2,-1
,-1,-1,4,-6,0,-1,0,1
,-1,0,0,2,0,-1,0,-2
,-1,-2,3,-1,0,-1,-1,1
,0,-2,-4,0,-1,-1,0,-1
,0,0,0,0,0,-2,-2,0
,0,-4,-11,0,1,1,-1,-2
,0,3,8,-2,-1,-1,-1,-1
,-1,-1,0,-3,-1,-2,-1,-1
,-1,0,5,1,-3,0,-1,0
,-3,-3,2,-2,-1,0,-2,-2
,0,-1,-23,0,2,-1,-1,0
,0,0,3,0,-2,-1,0,-3
,-3,-2,3,0,-1,0,-1,-2
,1,-1,0,0,-3,-2,-1,0
,-1,0,0,0,-2,-2,-1,0
,0,2,-3,-4,-1,-2,0,0
,0,-3,-5,0,0,0,-2,1
,-1,-3,-3,-3,-1,-2,-1,1
,-1,-1,-5,-3,-3,-1,0,-1
,-3,-1,8,2,0,-1,0,-1
,-2,-1,4,1,-1,0,0,-1
,-2,-2,-16,-4,-2,0,-2,-1
,0,-1,-1,0,0,0,-1,-1
,-1,1,7,0,0,-3,-2,-1
,-1,-3,-3,-3,0,-1,-2,-2
,-1,-1,4,2,0,0,-1,-1
,-1,-5,-3,-2,-2,-1,-1,0
,-1,-2,-2,-5,-2,-1,-1,0
,-1,0,4,-1,-2,-1,-1,-2
,-1,-2,-6,-2,-2,-1,1,0
,0,1,4,-1,-1,0,0,1
,-1,-2,5,0,-1,-1,0,-1
,0,1,-10,2,-1,-3,0,-2
,-2,-4,-6,-2,-1,1,-3,-2
,-1,-3,-7,-2,-1,0,-1,-1
,-2,-1,0,1,-2,0,0,-1
,-2,1,10,-2,0,-1,0,-1
,-1,0,2,-5,-2,-1,-2,-1
,0,-1,2,-3,-2,-2,0,0
,-1,1,-6,-3,-1,1,2,0
,-3,0,11,1,1,-1,0,-1
,-1,0,-13,1,-1,-1,-2,-1
,-1,0,-1,-1,-1,-1,1,0
,-2,-3,4,-4,-2,-2,-2,-1
,0,-2,1,2,-1,-1,-2,0
,0,-1,-7,-3,0,-2,-1,-1
,0,-1,13,1,0,0,0,0
,-1,-1,-13,-3,-1,-2,-1,0
,-1,0,-1,0,0,-1,-3,-1
,-2,0,12,-3,-2,-3,-1,-2
,0,-3,-18,-1,-1,0,0,0
,0,-2,1,1,0,0,0,0
,-1,-2,-4,-3,-1,-1,0,0
,0,1,2,3,-2,-1,-3,-2
,-2,-1,2,-3,-1,-1,-2,-3
,-2,-2,-9,-2,0,-1,0,-1
,-1,1,11,-1,-1,-1,0,0
,0,1,16,2,-2,-2,-1,-1
,-1,-3,-5,-1,-2,-1,-1,-1
,1,-2,-8,1,-1,0,-1,-1
,0,0,5,-2,-3,-1,-1,-1
,-1,-3,-4,-1,0,1,-1,0
,-1,2,12,0,-1,-1,-1,-1
,-1,-5,-25,-2,-1,1,-1,-1
,-1,-2,-3,-3,-1,-2,-2,-1
,-2,1,-3,2,-1,0,-1,1
,-1,-1,11,-1,0,-1,-2,1
,0,1,0,0,1,0,-2,-1
,-1,-4,-15,0,-2,-1,-2,-2
,-1,1,20,0,-2,-1,-1,-2
,-2,-3,-20,0,-2,0,-2,-2
,1,0,4,-1,-1,-1,-1,-1
,-1,-3,-7,-1,-1,0,-2,-1
,-2,-1,0,-4,-3,-3,-1,-1
,1,-2,-6,-1,0,0,-1,0
,-4,-1,14,-1,-1,-1,-1,-2
,-1,-2,-9,2,-1,0,2,-2
,-1,-6,-14,-2,-1,-2,-1,-2
,0,2,7,0,0,-1,1,-1
,-1,-1,-3,-3,0,-1,0,-1
,-1,-2,0,-2,0,0,0,0
,1,1,12,5,-1,-1,0,1
,0,-2,-25,-4,-1,-1,0,-1
,-1,-1,-4,2,0,-1,-1,-1
,0,-1,0,1,0,-1,-2,-1
,-1,0,-1,-5,-2,-2,1,-1
,-1,-2,0,-1,-2,-1,-4,-2
,-1,1,-3,-2,-1,-2,-1,0
,-2,-2,-1,-1,-1,-3,-1,-1
,0,0,2,-1,-2,-1,0,2
,0,3,8,4,-1,1,-1,-2
,-2,-4,-3,1,0,0,2,-3
,0,-1,-8,-2,0,0,1,-1
,-1,-1,3,-2,-1,0,-1,-2
,-1,-1,1,-2,-2,-1,-1,1
,0,0,-3,-2,-3,-2,-2,1
,-2,3,5,0,0,-2,1,-2
,-2,-4,-28,-5,0,1,0,-1
,2,4,27,2,-2,-1,-1,-1
,-1,-3,-10,-1,0,-1,-1,-2
,0,1,-1,-1,-3,0,-2,-1
,-1,-3,7,0,0,-1,-1,-2
,0,-3,-6,-1,-1,-1,0,0
,-1,-1,-6,-1,0,0,-1,-2
,-3,-1,7,-2,-2,-1,-1,-1
,0,1,3,1,-1,-1,-1,-3
,-1,-3,-9,-2,-1,-1,-2,-2
,0,0,5,-1,-1,-1,-2,0
,-1,-5,-5,-2,-3,-2,-2,-1
,1,-2,-2,0,-1,-3,-2,0
,0,1,-4,0,0,0,-1,-2
,1,4,13,-1,-3,-2,-1,-1
,-3,-3,-7,-2,-2,1,-2,-1
,0,-2,-2,-1,1,-1,1,0
,-1,-2,-4,1,0,-2,-1,-1
,0,-2,1,1,-1,1,-2,1
,-1,-1,-3,1,0,-1,0,0
,-2,-6,-8,-1,-1,-1,-1,-1
,-1,-1,4,-2,-2,-1,-2,-2
,-1,-1,-5,-1,-1,1,-1,0
,-1,0,2,-1,1,-1,0,-1
,-1,-1,-1,-2,-2,-1,-1,0
,0,0,-4,0,-1,0,0,-2
,0,0,3,1,-2,-2,-1,-2
,-3,-5,-10,1,-2,0,-1,-1
,0,0,8,-1,1,0,-1,0
,-1,0,-7,-2,-1,0,-1,-1
,-2,2,8,-1,0,-2,0,-2
,0,-1,-11,-1,0,-1,0,-2
,-1,-1,-4,-1,-1,-2,-3,-1
,-1,-2,2,0,0,-1,-1,0
,0,-2,-3,2,0,-2,-1,-2
,-2,0,4,-1,-1,-1,-1,-1
,-2,-3,-3,-1,0,-2,0,0
,0,0,9,-2,-1,0,-1,-1
,-2,0,0,-3,-1,1,0,-1
,0,-2,-2,-1,-1,-1,-2,1
,-2,-1,-1,1,-3,0,-1,-2
,-1,-2,-10,0,-1,-1,-2,-2
,-2,-2,-4,1,-2,-1,-1,-3
,-1,0,4,-1,0,-2,-1,-1
,0,2,-5,0,0,0,-1,0
,-1,0,4,-2,-2,-2,0,0
,1,0,-1,0,-1,0,-1,0
,-1,-2,6,-1,-1,-1,0,-2
,-1,-1,8,-1,-3,-1,-1,1
,-1,-2,-8,-1,0,0,0,0
,0,0,-2,-2,0,-1,-2,-1
,-2,0,2,-1,0,-1,-2,0
,-1,-1,-10,1,1,-1,1,-1
,-1,-1,4,0,-1,-1,-1,-2
,0,-1,-8,-2,-1,0,1,-1
,-1,-1,5,-2,-1,-1,-2,-1
,-2,0,13,3,0,-1,0,0
,-1,-3,-21,-4,-2,0,0,-2
,-2,1,-1,-1,1,-1,0,0
,0,-3,-7,-2,-3,-1,-1,1
,-2,-2,4,4,-2,-1,1,0
,0,0,-2,-1,-1,-1,-2,0
,-1,-2,1,0,-1,0,-1,-1
,-1,-1,-4,-2,1,1,-2,-2
,-1,-1,-5,-2,-2,-2,-1,-1
,2,1,3,0,0,-2,0,-2
,0,1,-3,-1,-1,-2,-1,-1
,-1,-1,0,-2,1,-2,-1,-2
,-1,1,0,0,0,-1,0,-1
,-2,0,9,0,-1,-2,0,-2
,1,-3,-14,-5,-1,-1,-2,0
,-1,-1,-4,1,-1,0,-1,0
,1,-1,6,-1,-3,-2,-1,-1
,-1,-2,-7,0,-2,-2,-1,-2
,0,-1,-11,-2,0,-1,-1,-2
,-1,-1,-2,-1,-2,0,-1,-1
,-1,-3,0,-2,0,0,-1,0
,1,0,2,-1,0,0,0,0
,-1,-1,5,3,0,0,-1,-1
,0,1,0,-1,-1,-1,0,-1
,-1,-1,1,-2,-2,0,-2,-1
,-3,-1,3,-2,-1,0,0,-1
,0,-2,-6,-2,-1,-1,0,0
,1,-3,-14,0,1,0,1,-1
,0,0,1,0,-3,-2,-2,-2
,-3,-2,4,-4,0,-1,-1,-1
,-1,1,-15,2,0,-1,-1,1
,0,2,8,2,1,0,-1,1
,-3,-2,-3,-2,-1,1,1,2
,1,3,14,1,-1,0,0,0
,-2,-5,-1,-2,0,-1,1,0
,-2,0,1,-1,-1,-1,-1,-1
,-4,-1,11,0,0,-1,-2,-3
,0,-2,-22,-2,1,-2,-2,0
,-1,2,8,1,0,-1,-2,0
,0,-1,0,-3,-2,-4,0,-1
,-2,-1,-3,-3,-1,-1,0,0
,0,0,1,1,-1,0,-1,-2
,-3,-2,3,-3,1,1,-1,0
,-2,-3,-7,0,-2,-1,-2,-1
,0,0,3,0,0,1,-1,0
,0,0,-1,-1,-1,-1,1,0
,0,-1,-6,-3,0,-2,-1,-1
,0,2,-1,0,-3,-1,-1,-1
,-3,-2,-13,-1,-1,-2,-1,-3
,0,0,9,-1,-1,0,-1,-1
,1,-2,6,-1,-3,0,-1,-1
,-3,-2,-2,-2,0,2,0,-1
,-1,-2,5,-2,-2,0,0,-1
,-2,-5,-15,-2,-3,-2,0,0
,1,2,9,3,-1,-1,-1,-1
,-2,-3,-6,-4,1,-1,-1,-1
,0,1,4,0,-1,-1,-3,-1
,-2,-2,-6,1,0,-1,-2,0
,0,0,1,-2,-2,-1,-1,-2
,0,-2,-6,-1,1,0,-2,0
,-1,1,1,-2,-2,0,0,-1
,-1,-3,2,-2,-2,-2,-1,-1
,-1,0,-6,0,0,1,1,-1
,-3,-1,10,1,-3,-1,0,-1
,-2,-3,-11,0,2,0,-1,-1
,-1,0,7,-3,-2,-1,-2,-1
,-2,1,7,0,-2,-3,0,0
,-1,-1,-5,-3,-2,-2,0,-2
,-1,-4,-15,-1,-2,-1,-2,-2
,0,0,14,1,0,-1,0,-1
,1,-4,-9,-2,-1,0,-1,-2
,0,0,15,2,0,0,-1,1
,-2,-4,-33,-4,-2,-2,-1,0
,0,-1,0,-1,0,-1,0,-1
,0,0,-10,-2,-1,0,0,0
,-3,-1,-4,1,-2,-1,-2,-1
,-3,-5,-23,-3,0,-1,0,-1
,0,2,4,-2,-3,-2,-2,-1
,-1,-3,-4,0,2,1,-2,-1
,-1,2,1,0,2,1,-1,-2
,-1,-1,8,2,-3,-5,-1,-2
,1,0,-7,-1,4,5,-2,-1
,-1,-2,0,-3,1,-1,0,0
,0,-2,-3,-1,-1,-1,0,0
,-2,4,18,0,-5,0,-3,-4
,-2,-1,5,3,0,-2,0,-1
,1,0,8,-2,-6,-1,-2,1
,1,2,-6,-2,-3,0,2,1
,-5,-7,-1,-1,5,-1,0,-4
,-2,-1,-8,-1,-4,-1,-2,-2
,3,1,8,-1,0,0,-1,1
,-4,-6,-11,-7,-9,-3,-2,-2
,2,6,18,0,0,-2,-1,0
,2,3,-5,0,0,-4,-2,-2
,-3,-4,-2,0,2,3,-2,-4
,2,1,8,0,-2,-1,0,0
,1,2,-3,-1,3,-1,-2,0
,-3,-4,-6,-2,2,-1,1,-2
,-1,-1,-2,1,-4,-2,-1,-1
,-2,-3,-6,-6,-6,-2,0,1
,-2,-2,-8,0,0,0,0,1
,-1,2,-3,-1,-4,1,-3,-1
,-1,-7,3,-1,0,-3,-2,-1
,-2,2,-3,-1,0,0,-3,-1
,0,0,5,-2,-2,-1,0,-1
,0,-3,-8,4,3,-1,0,-1
,-3,-3,-30,-3,-2,-3,-1,-2
,-2,-5,-12,-5,-2,-3,-1,-3
,0,1,-2,-1,0,0,-1,0
,-1,-3,-6,-3,0,0,2,-1
,-1,0,11,1,1,0,-2,0
,0,-2,-1,-1,0,-1,-1,-1
,-2,1,4,-1,-1,0,0,-1
,0,1,-4,0,0,-1,-2,-1
,-1,-5,-6,0,-2,0,-1,-1
,-1,-2,-6,-2,1,-1,-2,0
,-2,-2,-25,-5,-2,-2,-1,1
,0,1,16,1,-1,0,0,-1
,-1,0,-5,0,-1,-1,-1,2
,-2,-5,-10,-3,-2,-2,0,0
,0,-2,-14,-1,1,0,0,0
,0,3,21,-1,-3,0,-1,0
,-2,-3,-8,-2,-1,-1,-1,0
,-1,0,-5,0,-3,-2,-1,-1
,-1,-2,-3,-1,-2,-3,-1,-2
,-2,-2,-4,-3,-1,-1,-2,0
,0,1,-8,1,-1,-1,-1,-2
,-3,-3,-12,-2,-1,-1,-2,-1
,0,2,7,1,1,1,1,0
,0,-1,-14,2,1,0,-1,0
,0,-1,5,-3,-2,-3,-1,-2
,0,-1,4,1,2,3,1,0
,0,-4,-1,-3,-5,0,-2,-2
,-2,-3,2,-2,2,-1,-2,0
,-5,-2,-3,-3,-1,0,-1,0
,-1,0,7,-2,-4,-3,-1,-1
,0,0,3,2,-1,-1,-1,0
,0,-1,-4,2,-1,2,-1,-1
,2,-1,5,5,-1,0,-1,-3
,0,-3,1,-1,0,-4,-2,-1
,-1,-1,13,5,3,-3,-2,0
,1,-1,-7,1,2,1,-1,0
,1,-3,-4,-1,-3,-1,0,-1
,-1,2,7,1,1,0,0,-1
,0,-4,-26,-9,-5,-2,-1,-2
,-1,4,5,0,-3,-5,0,-1
,-2,-1,0,-2,1,-2,0,-1
,0,1,1,3,-1,-1,0,-1
,-2,-1,4,-5,-7,-1,-1,-1
,-1,-1,0,-1,-1,-1,-2,-3
,0,3,27,-1,-3,0,1,-1
,-1,-3,-9,-3,4,-2,-1,0
,-1,1,0,7,-4,0,-1,-1
,0,-6,-11,-5,4,-3,-1,-2
,0,2,6,-2,0,1,-1,-1
,-3,-6,-18,4,-4,1,0,-1
,-1,1,-6,-9,-3,-1,-2,-1
,3,-2,-2,3,-2,-1,-2,0
,2,3,12,1,3,0,-3,-2
,2,1,3,-7,-4,-2,0,1
,-1,0,-1,-12,-1,-1,1,0
,-3,-1,2,15,5,-4,0,-2
,-2,-2,0,-4,0,4,-1,0
,-3,0,4,-3,-7,-3,0,-3
,-2,-2,-4,-4,-3,-2,0,-1
,-3,2,15,-1,-1,-3,-3,-2
,-3,-8,-23,-2,2,-1,-2,-1
,0,-2,-7,-1,-6,-3,0,-1
,-3,-1,-1,-29,-4,0,-1,-1
,-1,-2,-16,9,7,3,0,-2
,-3,-2,-22,-7,-5,0,-3,-1
,0,1,17,5,-8,-5,-3,0
,-1,-1,-6,-11,1,3,-1,0
,-1,3,19,-9,-5,-3,-1,1
,0,-2,-6,18,3,2,2,0
,-3,-3,-3,9,-7,-4,-1,-3
,0,1,-12,0,14,1,-3,0
,-1,0,1,-14,-7,-4,-1,-1
,-3,-3,-1,-4,-8,-10,-3,-1
,1,-2,-10,-19,-20,8,-1,0
,0,1,2,19,19,1,1,0
,-1,0,0,5,17,-3,0,1
,-1,-4,5,-13,-15,-6,-1,-3
,-4,-2,-11,-6,-15,1,-2,-3
,0,-3,1,5,1,-2,-2,-1
,0,2,0,-9,-1,-3,0,-3
,-1,-2,-1,0,3,-1,-1,-1
,-2,-2,-4,0,3,2,-1,-2
,0,-1,0,1,4,0,-2,-1
,-2,-2,-1,-11,0,3,-1,0
,-1,2,8,8,6,14,1,1
,-1,-2,-2,10,17,0,0,-2
,0,-3,0,7,13,0,0,1
,-2,1,-1,-11,-16,-3,-4,-1
,0,-4,-5,-5,-10,-11,-3,-2
,-1,1,-5,-9,-6,-1,-1,0
,-2,-2,-3,-7,-19,-6,-2,-2
,-1,-4,-5,-2,4,3,0,0
,0,1,0,-3,3,6,2,1
,1,-1,3,12,5,-4,0,-2
,0,-2,1,5,30,1,0,-1
,-1,-2,-3,-12,-8,-2,-1,1
,0,0,6,2,-6,0,-2,-1
,-2,0,-3,0,-8,-8,-2,0
,-2,-3,-1,3,1,6,0,0
,-1,1,1,-2,1,-7,-2,-1
,-1,-2,-1,1,-1,9,0,0
,0,-2,-4,-5,14,-1,1,0
,-3,-2,-1,-3,-12,-13,-3,-1
,-3,0,-4,-11,-16,3,-2,-2
,-2,0,0,-6,-8,2,1,-1
,-2,-3,-4,-3,3,2,-2,0
,-2,3,-1,-2,-12,-4,0,-1
,-3,-1,1,4,4,0,-2,0
,-2,-1,-3,0,5,-2,-1,0
,-1,0,0,-2,-16,3,-1,-2
,1,-2,-2,-5,-5,2,0,-1
,-1,0,0,0,19,4,-1,-1
,0,-1,0,-5,-14,-8,-2,-3
,-2,-2,-2,-3,-1,-3,-1,1
,1,0,1,4,-6,1,0,0
,0,-3,-1,0,5,0,1,-1
,-1,-1,-2,-1,1,-2,1,-2
,-2,0,-1,-2,-11,-1,0,0
,-1,1,24,0,5,-1,-2,-2
,-3,-3,-54,-2,4,4,-2,0
,-2,1,2,1,0,1,-1,-1
,-1,1,8,4,4,1,-1,-2
,-1,-4,-5,-3,-2,-1,0,1
,0,1,23,-1,-17,-9,0,-2
,-1,-1,-29,-1,-9,-5,-3,0
,-1,-2,1,2,6,2,-1,0
,2,-3,-9,3,10,4,0,-2
,0,-2,-12,-1,6,-4,0,0
,-2,1,10,-6,-8,0,-1,-1
,0,-1,9,0,-1,0,0,-2
,1,3,26,7,-10,-1,0,0
,-2,-8,-58,-12,1,-2,-2,9
,-1,1,0,2,5,-2,-2,-5
,1,-5,-27,-2,-21,-5,-2,-12
,-4,-11,35,-1,-10,-3,0,9
,-5,-17,-69,-9,10,1,1,5
,4,15,-18,-7,0,-4,-1,-8
,-2,-7,50,14,9,1,2,3
,-4,7,33,2,-14,-6,-7,-8
,-2,-9,-54,-19,-13,-4,-3,2
,-2,-22,-78,-20,4,2,3,14
,-1,6,104,21,2,-5,-6,-28
,13,25,-76,22,10,8,4,6
,-11,-22,7,-28,-7,-4,-3,-8
,4,23,18,18,12,0,0,-3
,5,12,-2,-10,4,0,2,1
,0,-1,102,3,-1,1,0,-4
,4,5,42,1,-2,-1,4,6
,-12,-30,-67,-8,-6,-1,1,-5
,5,29,117,31,3,-4,-4,1
,-11,-17,-58,-52,-14,-10,-8,-11
,10,8,-117,10,8,8,4,4
,-2,-14,-14,4,4,2,1,7
,3,19,8,2,8,6,3,7
,-4,-9,-96,8,-5,-6,-6,-7
,2,-4,95,-24,-2,0,2,5
,0,38,-65,23,5,-1,-1,4
,-8,-50,-59,-67,-6,-7,-6,-2
,-15,-33,127,25,-5,-3,-1,-4
,-6,-19,88,13,-10,-2,-5,-5
,13,53,0,17,4,8,4,4
,-7,-40,47,-65,1,-2,-3,-2
,-12,-30,-38,-85,-54,-25,-14,-13
