,-22,13,36,14,50,16,2,-18
,-25,-39,-47,-13,-46,17,45,76
,-24,-9,-66,-12,7,-14,3,20
,14,7,-9,-4,4,3,2,-19
,-64,-15,53,-10,-26,9,-27,-16
,-128,-43,-49,-28,5,-102,76,52
,61,32,46,28,6,80,127,-127
,-3,20,68,7,24,74,-7,21
,8,-3,-2,13,-8,-17,28,66
,-28,6,67,14,-3,13,37,-37
,-4,5,-114,-29,7,-35,77,-41
,-29,-18,22,0,9,21,-40,19
,-53,-1,82,4,21,45,-62,-35
,18,18,-55,6,-22,-15,-128,-16
,33,-22,24,9,20,20,46,41
,25,70,46,-2,-19,-14,-19,-61
,23,9,73,5,-16,1,45,34
,-44,-22,-91,-1,21,-46,-59,29
,-24,-18,-44,-10,1,44,5,-14
,36,-13,16,-2,0,19,-32,-49
,17,1,18,10,7,-6,-88,-42
,-17,13,10,6,-22,-16,-6,68
,-7,-4,-77,-10,11,-53,18,-31
,-47,-4,23,6,-6,-1,-18,18
,15,-16,-110,-16,1,-9,108,-22
,45,19,50,6,5,42,-38,-17
,-49,-3,7,-1,-2,1,58,80
,-33,18,52,11,26,-6,17,-22
,9,1,30,8,-19,-15,-46,-13
,11,-6,-65,-12,2,37,127,53
,-10,-30,-80,-12,-10,1,19,16
,3,12,27,4,2,-57,-55,-67
,-26,16,28,1,0,64,-6,69
,17,8,75,26,13,5,-51,-43
,-4,-1,-51,-33,-32,-55,-115,-48
,-50,13,-11,-2,-13,-75,74,4
,59,5,5,11,18,22,-75,80
,-11,13,14,14,26,107,103,-81
,56,19,16,-1,-1,-46,14,-1
,-4,-18,-45,-10,-23,-31,-47,32
,-25,0,40,15,15,40,-54,-86
,-7,17,-73,-18,-12,-10,-75,-58
,32,-12,86,5,-9,-28,28,11
,41,-11,-48,-16,23,38,-60,35
,17,-42,97,21,4,5,-29,-38
,-8,-10,-37,-14,-1,11,-42,26
,-27,6,-78,-5,10,-11,49,-24
,-18,8,47,0,4,32,-76,-18
,-1,19,39,20,-11,-3,127,57
,-26,-24,-29,5,3,5,98,4
,-22,14,67,-12,15,8,-66,-74
,-22,-42,-69,-1,-6,-37,1,-16
,30,10,23,-1,1,2,-84,56
,-59,-1,62,15,1,47,90,-45
,13,16,-10,-13,1,16,3,24
,24,-26,-54,9,16,25,-80,9
,29,39,45,13,-20,-5,98,19
,24,-45,-21,-8,-4,-61,-82,35
,36,46,48,25,33,94,112,37
,67,23,-10,-23,4,6,-84,-59
,-8,-43,-47,-7,-2,2,72,8
,20,6,64,-1,-18,-30,-9,38
,-61,-2,-17,3,2,-53,-86,-45
,49,13,53,18,0,45,70,18
,-2,-11,-29,-9,-6,-40,-56,16
,7,28,82,1,-22,-39,-57,17
,-18,-14,21,3,18,2,32,23
,0,18,58,17,-12,-14,-73,-4
,-42,-38,-77,-14,9,59,108,27
,2,-4,-11,-4,2,0,-81,-25
,36,-1,-40,-12,-21,-22,65,6
,31,10,79,8,6,7,32,24
,-52,8,13,5,1,-27,-31,-28
,10,-8,3,4,-8,-18,-87,-13
,-3,16,17,-1,-6,46,63,16
,7,24,19,3,1,-49,68,14
,28,37,20,2,4,-8,-10,39
,-33,-23,-79,-32,-19,-3,127,12
,26,-15,26,-4,-4,19,-106,27
,56,43,13,16,12,-23,-68,30
,-1,-27,-14,-3,-7,13,67,-20
,-29,-6,42,2,-7,-63,-104,-7
,-21,-7,-48,-7,-1,12,-77,-19
,0,-2,85,0,9,17,99,23
,-40,-27,-82,-23,-20,-34,-52,-8
,50,7,58,6,-14,-31,-79,-15
,-41,-3,14,-9,-3,-17,34,-65
,9,-9,-10,15,6,28,-81,-33
,-36,-17,-9,-12,-13,1,-91,-53
,-19,-28,-9,-16,-21,-70,60,72
,45,33,-49,12,14,25,-35,2
,-31,-33,6,-8,3,-13,39,44
,-62,-18,-2,-4,-6,-29,-84,-28
,-8,-4,-7,14,14,67,87,34
,4,18,-39,9,2,91,-52,-58
,-23,9,77,-7,4,-9,-16,-7
,-6,-19,1,10,8,45,-52,-48
,-45,13,38,5,-5,-40,-101,-11
,0,-13,23,4,5,23,80,34
,-2,21,-31,-3,3,1,29,-24
,-2,-18,28,-9,-5,-31,-22,79
,4,-5,-18,0,-5,28,-35,-12
,35,7,2,2,-13,-60,-41,-15
,-18,12,-45,-28,-9,-13,-8,-24
,17,-13,11,5,17,12,39,-20
,-47,3,2,-3,-7,18,60,-24
,6,-6,-18,-7,-17,-39,0,-35
,49,23,47,17,21,-29,-3,36
,3,-9,-54,-3,-7,1,-80,-46
,-89,-19,-113,-24,-6,18,-70,15
,19,-19,26,1,-5,-39,59,-44
,10,5,-20,3,-3,54,10,48
,-41,-2,28,-27,-17,-38,-52,7
,3,-11,44,8,10,22,79,16
,-27,14,41,6,-7,2,-24,-27
,-47,-23,-12,-29,-26,-69,-73,23
,50,-24,-16,15,9,58,-8,-1
,-3,23,-9,-12,-8,-31,-52,-15
,-4,7,57,10,1,16,38,40
,61,4,-51,-5,-3,-44,-30,-28
,30,13,37,-3,0,6,83,-4
,19,-25,-29,-5,-12,-23,-108,-47
,-43,-8,-1,-20,-24,-81,-29,7
,-4,26,41,6,14,52,-70,-18
,-19,-26,40,-1,1,-14,11,-38
,6,-14,-11,27,16,37,48,19
,18,-16,-74,-1,-3,2,-1,-12
,-71,16,-18,-10,-15,-39,-80,-33
,-37,-32,-66,-7,11,47,-52,-4
,-44,20,31,12,2,8,93,-9
,0,-22,-2,-10,-1,-37,-128,-35
,-61,0,55,27,12,18,127,27
,31,32,42,2,7,21,-8,11
,-2,-39,-65,-10,-6,-31,37,6
,9,17,26,6,2,-7,-63,-52
,7,1,22,2,-5,-19,28,34
,-18,0,-92,-9,7,48,118,61
,54,-26,-27,7,-1,-28,-13,-16
,-3,21,62,3,-2,-24,-44,35
,71,43,-39,-8,-10,2,34,61
,33,-28,6,-4,2,18,-24,-13
,13,1,73,14,1,33,3,-5
,-11,-39,-127,-40,-20,-32,0,-57
,0,8,90,12,11,-8,-82,-25
,-14,33,49,15,14,16,79,76
,42,0,-14,-15,-4,-2,-15,41
,33,-6,15,1,5,13,-11,-45
,-27,-7,32,-17,-3,26,-4,24
,15,28,81,22,-3,8,-26,0
,-14,-37,-3,7,7,-34,-1,-19
,-20,-5,-15,3,-11,-22,-52,22
,19,-7,15,-5,0,17,-21,-35
,-16,-20,-115,-25,0,-2,48,79
,40,36,116,30,13,55,19,-60
,-11,-12,-54,-7,-9,-39,-78,-35
,-19,20,4,3,0,1,-4,12
,9,15,6,-8,1,9,10,-17
,-9,13,-8,-6,-17,-50,-24,-44
,24,-14,27,1,5,61,20,21
,7,-20,-35,11,9,-9,-111,-10
,13,2,-10,-1,-2,26,-46,-24
,8,13,-5,0,9,-3,3,0
,16,16,63,14,-8,-40,-73,-22
,-37,-14,-32,-8,-13,-3,-38,15
,34,-9,-25,-10,3,14,-42,16
,-46,-14,-29,7,0,22,29,-15
,11,12,-4,11,1,-6,84,1
,-3,13,73,19,8,-38,-82,-35
,-20,-60,-82,-38,-11,15,88,32
,4,13,127,5,-1,-29,-38,-17
,-55,15,21,-7,8,2,-85,40
,39,2,43,9,0,28,40,34
,-7,13,-6,14,15,35,18,3
,-10,-13,-72,-20,-14,-29,-15,-14
,20,-3,15,13,7,34,117,-12
,26,-7,-3,-3,0,-16,-35,4
,-84,14,22,6,-1,-12,-21,-53
,-19,-49,-78,-7,4,21,-21,-16
,20,25,51,6,-7,16,53,-3
,-3,-6,-55,-10,1,-5,-17,0
,-45,-8,5,-1,4,9,10,52
,10,0,-13,-6,-11,-37,-19,-18
,-42,1,-16,3,-2,-16,-26,-45
,-23,-7,-32,1,3,18,-45,-25
,-4,6,36,-4,-9,-13,28,39
,29,0,22,-5,-1,-17,91,15
,16,-38,-102,-29,-12,-1,5,-22
,7,27,75,16,-3,0,30,4
,4,-39,-87,-26,6,-4,-49,9
,-37,5,53,24,9,21,30,9
,-5,6,35,11,-1,12,-81,-16
,41,10,0,-17,0,32,84,-33
,-23,-15,-68,-12,-3,6,-30,-14
,3,3,-42,3,-5,0,64,-9
,57,-13,-30,-1,-6,-30,-99,-2
,-61,0,-37,2,11,34,70,-2
,2,-17,94,21,-5,1,-14,-20
,-9,20,7,-9,5,-32,-72,18
,-25,13,27,4,-2,12,16,6
,-32,-9,-36,5,-2,-17,-87,-23
,-14,-5,-80,-8,1,14,75,-6
,41,-15,7,-1,-7,-21,-6,75
,-11,6,-30,-3,4,8,18,-7
,22,2,33,-3,-13,-28,-69,17
,2,-25,-7,-6,-5,-4,-5,-4
,-23,2,14,0,-1,-6,-29,12
,33,24,22,-11,-7,-34,-106,-7
,-60,-28,-59,-12,2,21,98,-68
,27,15,17,0,-6,-20,-14,-46
,-3,-6,-27,-13,-6,15,24,-9
,13,8,57,13,9,30,59,-11
,1,8,5,7,-6,-35,-96,97
,27,2,10,9,20,90,59,53
,19,-1,76,19,6,-3,107,-37
,-16,-11,-60,-11,-3,-24,31,32
,57,15,15,4,-3,8,-41,11
,71,14,65,13,16,28,-14,-51
,-55,-49,-111,-33,-9,-57,-76,-18
,2,15,46,13,4,3,15,2
,8,0,20,4,-6,-10,17,55
,12,-1,-55,-16,-18,-15,34,23
,3,26,85,10,5,17,21,60
,-33,-20,-7,2,-2,-51,24,-50
,-5,5,-10,4,2,9,3,-13
,-18,9,-15,3,1,-6,3,18
,18,-36,-34,-9,-6,-2,-17,3
,-39,14,20,3,2,-25,2,22
,10,14,27,3,-7,10,-23,-76
,16,8,62,10,-1,14,-11,33
,27,18,-62,-1,-5,-35,-44,-34
,-38,-29,25,15,12,36,77,2
,-22,-23,2,-26,-3,-17,-17,35
,47,-4,-65,-4,-3,7,1,-40
,-1,38,16,3,8,7,-42,29
,0,-23,21,6,-7,-14,-21,-30
,-59,23,-49,6,7,73,26,12
,-1,7,26,8,-1,12,-3,-26
,40,4,15,4,-4,-26,-59,-23
,-69,-21,-73,-20,-8,24,36,12
,0,-13,12,-2,8,-26,-4,3
,8,-18,31,2,3,13,1,8
,1,18,20,11,0,-11,-33,-63
,-44,0,-3,-10,-7,27,-15,18
,4,-2,94,27,-2,-21,7,-5
,22,37,-68,-26,-10,-14,-31,10
,-11,-21,9,7,-6,-17,113,-15
,8,-3,14,-4,1,-11,-20,2
,28,1,-83,-13,-4,-1,-53,6
,-12,12,38,4,2,43,54,22
,8,-10,-29,1,-1,11,-43,-51
,8,16,16,3,5,4,-1,-6
,-28,-18,-11,-5,-18,-21,41,23
,26,0,15,9,12,-7,-71,-11
,-1,13,-4,-6,-1,-15,12,5
,-33,-6,-3,1,-3,9,-5,-9
,9,12,83,9,4,19,-41,-66
,-37,16,40,-11,-8,0,-36,-10
,11,-27,-40,4,3,8,46,5
,2,11,64,24,13,-14,-38,-17
,12,-2,-56,-18,-17,-37,49,21
,12,6,14,0,1,-1,-51,-6
,-7,2,-38,-7,-7,-6,-4,26
,31,1,6,7,2,10,-28,26
,-42,-16,62,-8,-1,-2,32,49
,10,-10,-73,-10,-1,20,16,-32
,-5,7,-9,-21,-7,-9,-70,-33
,-28,7,14,-6,-1,-22,-72,31
,19,10,31,17,4,48,121,6
,-39,-19,-24,-1,-9,-28,-64,36
,2,-23,-90,-15,12,15,53,-15
,-51,9,43,12,3,1,-5,29
,13,-6,-19,-9,-3,-51,-79,-49
,9,22,45,0,0,43,58,39
,51,-2,-35,5,-6,10,89,20
,19,-9,17,1,3,-15,8,27
,-10,12,6,4,11,15,-33,21
,-4,-38,-30,-8,6,-3,-38,-47
,70,12,65,18,2,3,100,45
,-26,16,17,0,6,18,-60,-1
,-2,-37,50,2,-6,-10,16,7
,13,15,-30,-2,-19,-7,35,31
,14,-7,-1,10,4,13,12,-11
,11,14,-15,-16,8,-9,7,56
,19,-7,-17,4,1,-14,47,-16
,-4,9,-54,-3,0,9,20,7
,-28,-4,97,-1,2,5,-13,-8
,16,-35,67,9,2,-3,55,30
,3,-19,-128,-22,-2,1,-36,-11
,-20,-15,17,1,-3,11,-95,-26
,6,11,64,11,0,-42,-70,-26
,11,15,-8,-2,10,65,77,-48
,0,3,1,-5,-7,-11,3,3
,37,5,-24,-3,-4,-29,48,-33
,2,-3,-4,4,4,31,-122,-24
,-24,26,-14,-8,-16,-36,47,28
,27,-6,41,8,4,16,-58,-18
,-5,2,28,8,-2,-27,-39,-2
,-22,-17,41,14,7,-53,9,69
,49,0,37,2,-3,27,26,-16
,-37,8,-40,2,8,13,17,22
,80,11,8,4,-5,9,-63,-43
,-86,2,11,-19,-7,-12,75,-23
,-44,-48,15,8,4,1,-65,41
,15,-2,-65,-12,-6,-7,12,-95
,17,10,19,7,11,5,-47,-2
,31,22,5,5,-13,-8,53,-51
,6,7,-63,-4,4,0,29,6
,12,-8,2,-15,-5,-37,-21,63
,-25,-11,-28,-6,-6,-7,-18,-45
,49,-23,53,18,-1,-3,-44,65
,-24,26,-26,-9,-2,-19,-5,7
,-40,-39,-45,2,4,31,-6,21
,0,5,11,6,3,3,80,-3
,24,47,35,2,0,6,-53,-14
,-62,-19,19,1,-4,-51,-25,-38
,15,-10,17,4,9,58,-29,-5
,-11,21,-21,8,-6,-36,-1,11
,-31,-37,-7,-26,-5,9,-31,-26
,36,-19,53,5,-1,-1,-11,-7
,65,35,13,10,-6,-14,-26,-98
,1,-8,28,10,5,32,50,33
,-26,-1,-59,-18,-7,-28,-74,9
,14,-12,-1,-7,1,8,20,-14
,-38,-1,20,12,9,56,47,61
,63,-7,-56,-5,-9,-26,-126,-117
,48,12,19,0,11,11,25,42
,-35,2,5,4,2,-2,-30,-15
,-26,3,13,-1,-3,-30,-30,35
,-13,-26,70,13,2,4,65,6
,-44,-2,-13,-30,-18,-18,-18,-29
,1,-2,33,13,-3,30,37,85
,-17,-15,-25,-12,-2,-17,-14,-66
,-17,10,-45,-9,-4,-20,-16,58
,13,3,77,25,15,37,10,-66
,4,4,-107,-25,3,-11,-51,-12
,-13,-26,14,9,-6,-2,19,13
,-5,6,13,13,-2,-10,-58,-42
,-14,-3,8,-5,-10,-21,-13,17
,3,-2,-67,-26,-11,-62,-80,-85
,16,0,-7,1,3,14,31,1
,13,-18,35,-1,4,0,-51,-32
,18,12,-86,-12,-10,-6,-53,6
,24,-2,39,15,11,7,25,-33
,-27,-9,-30,-19,-2,-13,18,26
,-14,24,53,4,-7,-6,-29,-13
,-3,1,-23,7,-1,-14,28,-29
,-37,-3,37,6,4,31,35,-30
,-16,-19,-108,-8,-3,-10,-23,58
,42,4,33,-10,-9,-60,-104,-79
,-14,2,59,16,3,36,104,94
,32,13,-14,-1,-1,2,-46,25
,-52,-6,-13,-13,-4,-34,8,-4
,2,-1,13,5,11,30,31,27
,13,-13,30,0,-10,-9,1,15
,13,2,-62,-12,-2,23,52,26
,-12,-1,10,5,18,23,31,-10
,-28,-1,-1,-8,-13,5,18,-25
,-19,-26,-4,5,9,41,7,-4
,-11,21,11,1,0,15,98,5
,57,9,44,2,-4,-22,-33,29
,5,0,-4,1,3,13,23,2
,-33,12,34,14,5,10,-75,2
,22,-26,-58,-14,-9,-38,21,18
,-6,-1,8,-15,-10,-8,26,11
,-1,22,10,7,1,0,-21,10
,22,-35,-91,-17,-11,-11,-59,-85
,-27,16,12,0,-1,3,93,0
,20,-33,41,3,-5,-13,-24,-1
,-22,-18,45,17,4,8,-29,-6
,-46,33,-29,-18,-6,-7,-70,-98
,18,-12,47,10,-1,21,67,12
,10,12,-12,-10,4,-31,-58,-3
,-28,-21,-8,-1,-4,8,-27,-10
,32,-7,39,7,3,24,-66,36
,-18,11,-22,-11,-4,-4,-49,24
,38,31,85,20,-4,14,110,-73
,19,-4,-20,-3,4,18,2,11
,42,7,-13,-10,2,-17,-31,19
,-7,12,-65,-46,-17,14,92,5
,38,5,36,10,-3,-21,-8,11
,4,-22,-11,0,6,-5,72,-5
,-42,4,-26,-18,-4,35,4,32
,12,-4,22,20,5,-12,-31,-10
,-7,18,-13,2,-6,-7,6,19
,-15,4,-61,-7,-6,-31,-20,-5
,-70,-56,-43,-4,2,2,-10,114
,20,21,-63,1,6,13,-70,-74
,2,-4,36,-4,0,10,127,37
,-9,-3,28,0,-1,1,-23,25
,-17,-13,44,18,8,2,-35,-10
,9,-32,-23,2,0,-2,-17,43
,1,11,-81,-29,-8,-12,59,13
,10,21,89,26,10,43,-102,-6
,-9,-12,-64,-2,-2,-9,13,-40
,2,-4,25,3,-5,-1,6,-23
,31,7,0,8,3,-12,-128,-72
,-1,-3,34,-11,0,-16,93,32
,6,-12,-51,-7,-14,-24,-33,-10
,-19,-11,5,5,-2,-9,15,-17
,19,13,5,2,5,8,2,-9
,26,-11,36,-10,-3,-5,48,29
,-1,-5,33,-2,-2,3,4,-14
,1,-14,-7,1,-3,-23,18,49
,5,-1,-23,-4,1,32,-56,32
,-4,32,33,6,-4,-8,41,-15
,-30,-11,-49,-4,-3,-16,25,19
,-12,-1,-2,9,5,9,5,-55
,-38,-17,-15,-4,-2,-8,-27,-3
,-28,4,-8,-1,-6,-18,-69,-76
,-40,-8,49,9,6,23,127,54
,28,41,10,14,9,-3,-56,-44
,-19,1,-30,-9,1,-4,35,8
,0,-25,5,2,0,22,-41,32
,14,-6,29,-7,-6,-7,-31,-6
,5,-20,-113,-17,-1,5,-106,-30
,19,6,40,15,16,30,64,19
,-65,-7,39,16,2,-22,-67,50
,-15,-33,28,-18,-30,-36,-5,-40
,-13,5,3,-13,10,23,-9,-23
,-20,16,37,13,8,32,71,0
,75,14,64,13,0,-20,-23,4
,-21,-11,-98,-12,0,-8,70,19
,-5,-8,37,4,-4,5,-49,14
,-6,-11,51,4,-11,-53,-120,-40
,-27,3,4,-11,0,65,115,55
,72,31,-38,-9,4,17,-20,-35
,44,-23,-39,-20,-4,-7,105,8
,-35,37,25,3,-4,-11,-88,-57
,-12,8,-47,-5,-2,4,127,-13
,56,-20,63,7,2,-12,-70,24
,34,14,7,-2,-6,-41,9,-36
,10,-1,53,9,3,24,14,25
,-17,-19,-31,-18,-5,-34,-92,-27
,1,13,70,-2,0,35,125,88
,-6,0,-18,-8,-6,-7,-59,13
,40,16,59,6,4,0,51,11
,-56,3,35,11,15,0,-93,-73
,-40,4,11,13,3,14,-75,38
,43,-18,31,0,4,6,5,21
,-4,7,-88,-10,-7,-4,-59,9
,-19,0,65,4,-10,-8,58,-14
,6,3,-80,-20,1,-16,-60,9
,4,8,96,22,9,-2,92,1
,2,-23,50,8,2,8,-128,-38
,28,-4,-62,-29,-14,-28,63,77
,-8,16,-5,12,6,6,-106,-28
,15,-9,-31,-4,-2,-9,-40,-3
,3,-11,-25,-9,-3,-17,8,-24
,-15,-10,3,-2,-8,-4,21,8
,8,-15,-42,-4,-2,-17,20,-9
,39,49,-5,2,7,11,-33,-13
,-35,-16,7,-1,-2,-2,41,29
,-27,-20,-2,-15,-14,-52,-38,13
,13,10,14,2,3,-5,95,-15
,-23,-2,-18,6,2,22,-103,28
,7,33,5,7,4,12,1,-48
,24,-10,48,10,7,21,-53,10
,11,-3,-31,-7,-6,-36,-17,25
,-28,4,-14,-17,-7,-8,-5,26
,21,-7,-48,3,-2,-24,-43,10
,3,29,59,5,5,32,-68,15
,17,-31,20,9,7,71,-28,79
,20,17,-13,-7,3,26,61,22
,-46,-13,-11,-13,-7,0,-40,-6
,-41,-16,-27,2,0,-7,-16,-2
,1,-28,-15,-6,-7,-24,-20,-75
,1,-3,4,-2,-4,-41,28,0
,-8,11,69,14,9,48,48,-13
,22,18,0,9,2,-13,-70,69
,11,-1,-7,-13,5,33,65,-26
,18,-17,-17,-16,-13,-46,-3,-96
,-35,4,-48,-5,2,8,58,-38
,23,18,15,7,1,47,53,17
,38,1,0,6,-3,-10,-10,-30
,-43,4,21,14,0,-9,-29,-7
,-13,-41,-69,-17,-9,-22,29,54
,-49,28,-11,0,4,-8,127,53
,57,7,4,14,2,14,-114,2
,-68,-16,-17,-16,2,49,-33,2
,20,-6,64,6,-5,-43,-45,-57
,-23,-10,-27,2,6,16,65,32
,-26,-5,-5,2,2,10,-13,2
,-4,9,12,8,-5,-17,127,40
,1,21,84,18,7,15,-102,31
,38,-26,-37,-15,-2,2,-127,-78
,-21,16,-24,-7,-5,-33,98,66
,88,-10,9,-2,1,48,-107,-49
,-14,17,14,5,10,60,64,67
,-6,9,63,11,-2,-18,-26,-37
,-2,-27,-66,2,4,45,-114,-53
,-22,20,-11,12,2,-29,-79,-39
,56,-15,-24,-17,-10,-34,44,29
,-15,-3,-30,-9,-1,-21,-113,-10
,28,21,107,3,-4,-7,115,17
,-38,-7,-76,1,0,3,-24,-31
,-22,-33,-26,-9,-9,-37,-38,-34
,-33,-10,4,0,-8,10,48,20
,-20,-3,38,0,1,-12,-21,8
,18,21,33,-3,-15,-55,-86,9
,-43,4,11,-8,6,33,21,32
,17,-19,-44,-13,-8,-27,-52,89
,-15,-18,6,0,1,36,-46,-24
,-28,-1,16,0,-4,-40,-25,26
,-9,18,4,10,10,30,-79,-24
,19,21,48,7,-7,3,-20,21
,-76,-12,27,-17,0,15,-26,4
,48,12,-12,16,11,21,103,-19
,28,13,0,-18,-10,-35,-82,4
,-7,-14,26,-7,0,42,78,75
,59,4,-54,9,10,63,34,39
,-28,-10,17,7,-1,-29,-76,-4
,28,-1,-39,-8,7,42,100,84
,56,33,58,20,-2,-37,0,-90
,-27,-5,-85,-30,-15,-40,-37,-36
,23,-15,37,11,22,45,-23,21
,4,6,15,2,-5,25,-112,23
,34,-1,-29,-12,1,7,61,-13
,-46,3,31,8,-2,8,-33,5
,61,-1,3,4,-7,4,36,-27
,25,25,-7,6,3,4,-99,-32
,-6,4,-5,-13,-5,-22,18,31
,-88,-27,-14,4,-8,-69,75,-10
,-17,-43,-6,-9,3,52,29,22
,-8,15,37,0,-8,-55,-73,-61
,-7,-32,-128,-20,6,61,-71,-59
,11,26,65,5,-11,-128,-67,35
,-24,-7,6,-4,2,2,-32,-19
,-23,1,72,20,-1,-18,46,-18
,14,1,-41,-10,-2,-2,13,-2
,56,32,31,11,6,-30,-84,-8
,13,-17,-72,1,7,74,70,10
,2,-24,-47,-23,-11,-60,-23,-37
,-8,13,25,-1,-3,-30,-7,12
,16,-21,-113,-10,2,71,-101,-19
,29,25,74,1,-3,-16,95,57
,48,30,12,19,9,-10,102,26
,-5,0,-34,-29,-8,-11,-56,-25
,-1,-20,23,-8,-4,24,68,4
,12,24,22,7,-7,-45,-101,9
,-83,-37,-96,-6,3,67,68,-20
,-53,-13,60,25,8,-5,32,-26
,17,18,25,5,1,-4,22,5
,13,-17,-89,-35,-11,-47,-56,17
,-18,12,40,11,5,49,25,-42
,-3,-10,-20,-2,0,5,-62,-6
,11,-9,12,10,-1,-15,118,6
,-89,-13,58,4,-3,3,57,49
,65,19,70,1,-4,-30,-26,-73
,14,11,46,-5,-4,7,76,12
,28,2,-66,-14,4,-13,-2,-88
,-2,-1,5,-2,-3,37,38,-20
,-55,-4,35,10,4,11,-20,1
,7,-7,-30,-3,-2,-64,10,-13
,-8,-3,-16,0,8,29,38,31
,2,7,22,-4,-4,-11,-94,-50
,-49,-25,-46,-1,-5,-34,-54,80
,45,8,68,17,12,63,94,6
,15,-7,6,-15,-3,-5,-32,36
,-11,9,-36,-5,-5,-11,-87,-18
,-6,-8,31,5,1,-16,87,1
,-12,-8,-28,-5,-5,-24,-47,21
,0,-28,-25,-9,-10,-35,-26,-15
,19,31,46,9,5,53,122,29
,19,-17,-34,-5,0,-19,8,-11
,-3,-17,59,16,6,12,-60,31
,-4,26,60,12,-2,14,121,-9
,-47,-43,-97,-32,-11,-55,-40,6
,73,8,-39,-19,-5,-29,-90,-16
,-26,5,26,7,6,46,-36,-7
,-21,9,81,26,15,86,-12,74
,19,-5,4,3,-8,-27,7,-29
,-26,-6,15,-1,-8,-34,42,12
,10,-12,-20,2,-4,2,-80,18
,-63,2,-77,-28,-9,-15,33,44
,37,1,-6,8,5,7,103,7
,-29,30,46,19,7,36,16,-21
,-46,-34,-84,-36,-11,-33,-81,-49
,3,9,-22,-6,-7,-23,-19,-10
,8,-5,34,1,3,7,63,8
,-1,2,32,1,-5,-8,-23,3
,-38,7,36,19,2,27,9,62
,-23,1,-11,-15,-8,-28,-70,-77
,-24,11,45,2,11,22,0,-15
,31,-2,36,2,-1,-6,78,30
,-3,13,-55,-16,-5,17,-46,14
,-5,-28,84,2,2,17,-46,-29
,54,4,0,0,-7,-6,47,56
,-51,15,15,-3,-2,-10,82,31
,-9,-12,3,1,3,8,-6,-17
,27,17,54,21,5,4,-103,4
,28,15,-66,3,3,-15,-84,-40
,-16,-29,-8,-11,-7,-12,-49,29
,-15,-21,-33,1,0,20,127,13
,13,21,-26,3,-5,-22,-38,21
,-9,9,43,5,6,-31,-59,-20
,28,-25,-96,-20,-3,35,-81,-69
,35,28,44,-2,-8,-61,82,-24
,37,-11,23,15,6,46,74,-12
,-37,-5,-24,-5,-6,10,22,9
,-33,11,6,-4,-2,-16,-78,-11
,26,-11,5,-2,-3,-32,-3,-43
,-5,-1,1,5,4,23,42,-5
,-23,4,92,-2,-8,-17,20,-17
,13,-20,-101,-2,1,3,-89,-16
,-20,-20,6,-19,2,27,-19,-38
,20,18,-29,-5,-7,-49,19,25
,52,-4,-24,15,-1,-19,-99,-45
,81,7,58,-3,2,37,127,46
,34,17,-10,1,-5,-26,-55,-6
,-39,-24,15,-12,-11,-53,-15,-10
,2,2,-20,-7,0,32,68,52
,-21,22,63,20,6,0,-64,-66
,-15,-12,-11,0,-7,-25,-41,-33
,-1,-27,-76,-22,2,30,117,85
,34,-3,18,-1,-6,-21,-72,-20
,18,16,40,13,4,17,-77,-72
,-62,2,-8,2,-5,-10,81,1
,-16,-9,-3,-12,-5,-24,18,-16
,7,14,-3,7,10,18,-18,7
,3,-52,-70,-28,-13,-6,-30,56
,3,10,23,14,3,-22,-29,-42
,51,35,82,32,13,62,61,-20
,-33,-17,-121,-24,-7,-5,-6,-26
,-52,17,45,-6,-3,-32,-14,69
,34,21,-5,5,7,14,-17,-3
,-38,-23,52,1,-4,-15,-53,-6
,69,19,11,-12,1,15,76,16
,-15,14,-37,10,2,17,58,-15
,-11,-31,6,-5,-3,2,19,49
,20,34,-23,7,6,19,-49,-27
,-39,-12,89,19,5,-2,15,7
,13,-22,-64,-16,-7,0,-65,-27
,35,25,-28,-10,6,19,127,69
,-21,-26,-79,-16,-10,-38,-95,-18
,1,-38,10,-5,-7,-2,-18,3
,7,8,12,0,4,18,101,19
,24,7,63,12,4,-7,5,-28
,-41,9,-17,-3,-8,-31,-89,-21
,-3,16,15,10,11,47,-21,-27
,1,-13,-9,10,7,16,91,80
,26,0,-5,-9,-3,-6,-39,-25
,-21,-50,-113,-33,-15,-30,-17,36
,-21,20,60,13,-6,-26,-68,-29
,8,16,-5,1,0,-1,28,9
,-16,-18,11,4,0,7,-37,26
,-15,-15,27,-1,-1,-9,-50,-17
,-68,-23,-23,-7,-8,-51,-16,19
,-38,2,-2,4,-1,-31,40,0
,24,19,-21,7,6,63,51,-23
,50,27,71,5,-4,-19,-62,58
,-14,-33,-98,-9,1,4,55,-65
,11,15,-35,-18,-7,-6,-35,-12
,10,35,48,14,3,-6,-72,-34
,53,-4,-77,-4,2,23,38,17
,27,1,29,-3,-5,-6,0,-4
,-21,-4,10,-8,-12,-58,-70,-14
,-20,-26,-8,-1,3,42,32,2
,9,14,28,17,3,-10,-31,-25
,-9,-3,-25,-18,-8,6,-21,17
,31,3,14,4,5,38,4,-11
,7,-10,-54,-10,3,-17,-9,-17
,4,7,-21,14,5,18,14,43
,7,-1,-4,-6,-3,-10,-20,16
,29,3,30,0,-1,2,-71,-66
,-62,10,-10,-4,-13,-26,-44,32
,-19,-8,46,5,4,3,68,-37
,-8,-12,5,-10,-6,-16,-12,-6
,3,5,-53,6,4,13,19,-8
,4,-23,-7,0,4,8,59,28
,-22,-8,17,-6,-1,3,120,-43
,-22,36,22,8,7,28,12,9
,11,-37,37,-9,-5,-2,-61,62
,37,6,14,4,1,-26,-31,-34
,12,30,43,10,3,5,5,39
,-5,-4,-47,5,3,7,93,-33
,33,-1,22,-5,7,68,58,13
,60,24,-34,-6,-12,-26,-59,-3
,10,16,26,1,-4,-5,-25,7
,-2,4,37,8,3,-9,-42,67
,-48,-27,-58,-8,-10,-19,63,-62
,6,-6,-3,-7,-8,-4,5,-6
,-3,20,-14,-7,0,5,-27,7
,-15,-28,11,6,0,2,13,19
,12,-9,-21,-7,-4,-44,-81,-34
,-30,4,53,6,1,-7,10,15
,-33,-7,-32,-12,-3,10,-24,-5
,23,-20,-30,1,-3,-21,-59,24
,-48,46,8,0,2,18,105,-2
,15,-9,36,11,4,-9,6,3
,14,-15,-70,-14,-1,2,-122,18
,-16,-8,14,1,2,18,68,77
,16,0,6,10,4,-5,-15,-58
,21,19,17,1,-10,-39,-66,10
,-16,-9,49,5,1,9,53,-29
,-7,-2,-34,-1,-1,13,-39,-73
,-18,-4,22,-15,-8,-23,30,33
,-17,-4,-56,1,1,25,-113,2
,89,-2,-4,2,-3,-1,47,-5
,55,21,-5,11,10,19,29,-55
,-16,5,-40,-6,-2,-14,-77,-17
,-35,-23,9,-16,-6,25,-40,-35
,-43,28,21,12,-2,-48,47,44
,28,-11,-30,-11,-8,5,-13,-10
,6,-24,-10,9,7,17,-16,1
,-15,27,14,2,-3,-19,-15,54
,35,-13,-74,-18,-8,-18,7,-73
,-10,17,127,4,-5,-33,-49,23
,-9,-28,-31,0,3,17,-24,19
,-23,-15,-7,-4,6,36,127,38
,-41,3,44,-2,0,7,-85,-5
,-19,12,-44,5,2,-11,37,26
,-10,-22,27,-11,-11,-27,-19,-27
,53,5,9,-9,-1,0,24,-74
,-28,-16,4,2,-6,10,-15,12
,-22,28,52,11,3,1,21,-15
,-1,20,-2,4,2,1,20,48
,-10,-25,-24,-7,-7,-40,-36,30
,17,-24,43,14,5,19,28,-18
,-23,-22,-34,-6,3,32,5,-14
,11,13,3,1,-7,-22,-26,-2
,-10,-11,-28,-15,0,21,13,7
,16,-10,25,-8,-1,-3,-17,39
,8,16,9,6,-1,-15,2,-24
,29,7,10,17,5,44,-128,-12
,13,15,-14,15,9,-1,117,-11
,-30,-14,3,-5,-2,-11,-30,33
,50,-7,-20,-14,-6,-7,3,0
,-3,34,-1,-13,-4,-11,36,-10
,-21,1,26,0,-4,-2,-65,-15
,-39,4,19,9,3,7,56,55
,-5,-16,2,-10,-7,-34,-36,-27
,-26,-11,-7,-1,-2,9,86,-30
,-18,-1,50,14,1,2,-59,9
,12,-5,-66,-9,-5,-20,45,-37
,-25,-10,-1,-1,-5,17,-61,-19
,14,13,11,0,3,0,58,17
,-12,-22,-72,-14,-1,11,-32,-26
,-10,9,64,12,-1,-30,-61,4
,-7,9,-43,-24,0,48,48,33
,18,3,5,11,1,-5,29,27
,-14,-14,-17,-4,-5,-6,-4,53
,8,6,8,1,-4,-12,-127,-36
,13,-1,2,4,-2,1,90,43
,7,-21,9,-7,0,15,-23,-4
,8,23,-39,-5,-4,-13,-62,4
,34,2,7,-2,2,18,-3,-18
,-69,4,9,10,-2,-32,7,39
,-17,-23,74,11,4,28,23,29
,-3,-15,-76,-23,-6,-19,-19,-7
,-7,-11,-10,-19,-11,14,-34,-3
,-2,3,39,14,3,-5,-48,17
,-7,-13,-85,-18,-3,-24,-35,25
,17,13,58,23,8,-4,14,-24
,43,5,-8,8,0,22,68,30
,26,21,32,-6,-5,-19,-11,7
,-40,14,16,9,-2,13,44,-46
,10,-34,-53,-14,-5,-16,-8,-52
,-11,-25,-19,5,9,15,18,-24
,5,-11,-22,5,0,-6,-52,15
,34,18,13,-10,-6,-6,85,1
,-39,-19,27,3,-4,-9,-29,44
,-52,12,37,10,-3,6,24,-99
,-19,-28,-26,-3,5,8,-26,-24
,-19,-6,-33,-16,-9,-22,-74,2
,25,-5,36,9,1,21,127,34
,-51,-4,-37,-6,-2,-13,-10,60
,7,25,25,2,-1,0,-38,-73
,-25,-27,23,2,-4,-17,-4,27
,14,30,-63,-9,1,23,-41,35
,29,3,-22,-1,-1,-13,-59,10
,16,-4,3,-19,-3,-2,62,17
,35,-8,16,3,-1,-4,-91,-12
,-21,23,68,12,-3,-1,51,-34
,13,-34,-15,-1,6,-12,60,39
,-43,14,-12,1,3,19,-1,-46
,6,19,34,6,-6,-21,-8,26
,-24,-24,20,-7,2,11,-9,29
,57,25,-2,-1,1,1,6,-14
,-2,2,40,6,-4,-25,-10,25
,3,-8,24,8,5,4,18,-1
,-46,-10,5,8,0,-1,-39,-31
,3,14,-4,-39,-10,-6,30,-87
,1,-30,-34,-9,-7,-9,-6,10
,36,29,9,3,6,0,-19,10
,-3,21,51,19,5,3,-43,-31
,-29,-17,-14,2,-2,1,113,32
,2,-3,24,5,1,9,-110,25
,-34,13,11,1,-1,-5,-17,-61
,9,-11,-32,-18,-3,0,51,3
,-6,-17,5,11,2,-3,-33,-10
,-17,14,-40,-12,-8,-42,-61,-27
,33,18,1,5,2,30,39,-2
,3,-14,32,12,9,21,9,-34
,-14,13,-1,-3,-5,8,-98,38
,54,-15,24,4,1,-4,116,16
,26,0,-29,-10,-4,-16,-18,4
,-43,2,5,-5,-5,-18,-74,-33
,-31,-1,6,6,-1,43,-36,-22
,18,-9,17,10,8,20,-80,13
,-7,-6,24,8,1,-25,-2,-39
,37,9,-58,-18,-4,7,93,9
,11,3,43,2,1,5,13,47
,-17,3,32,5,-1,6,5,-36
,28,-11,-55,-9,-7,11,-11,-7
,37,7,-11,4,4,-23,-125,-26
,49,15,42,10,2,-10,78,-26
,-7,-1,-95,-28,-9,-16,38,89
,-24,4,115,12,2,8,-100,-39
,-40,-22,-62,-14,1,13,99,19
,30,-4,23,-2,-7,-51,2,-24
,13,16,13,13,8,16,61,-16
,-28,17,14,7,7,22,-41,37
,6,-21,8,-4,-10,-26,-17,55
,-3,18,-37,-5,6,43,19,-11
,-34,15,-5,10,-2,-19,77,57
,9,-27,-52,-22,-14,-23,-21,92
,23,24,53,4,4,17,19,-44
,-38,-28,-15,2,-2,-14,-26,-52
,-29,-1,-59,-15,-7,-9,-74,-23
,25,-29,11,9,9,22,116,50
,27,18,-52,10,2,-10,4,12
,-6,-9,-62,-23,-8,-6,-30,16
,-4,3,41,-11,-3,9,-25,-73
,-17,-21,-16,2,-5,-4,34,-13
,17,5,88,-6,-7,-17,-36,-12
,-16,0,-15,0,-1,-11,32,28
,59,5,-37,-7,-4,2,43,13
,-16,-1,19,1,0,4,-59,29
,6,-2,-24,-3,7,22,-2,-84
,-43,12,72,9,-3,-16,-71,30
,14,-35,-50,-17,-8,-17,-35,-13
,-49,14,28,4,-1,-15,41,-17
,-20,2,14,4,-5,18,49,70
,4,-5,35,2,10,18,-4,-15
,8,-1,-26,4,-1,-8,-15,-27
,-4,-2,37,7,6,-4,-83,-34
,3,6,-47,4,-6,-21,11,7
,-11,-11,-39,-34,-11,5,1,-11
,-5,6,60,17,3,-30,-12,-8
,28,5,-35,-15,0,47,112,-14
,9,4,31,-3,-9,-12,16,-7
,32,12,34,26,9,41,19,-32
,10,12,-12,-1,2,8,-30,28
,-75,0,40,5,-3,-27,-40,8
,-12,-42,-66,-25,-8,-18,-61,-11
,-8,-5,-6,-2,4,20,76,-2
,34,-10,29,9,-2,-10,-84,26
,48,30,-18,-6,-4,-12,-28,-6
,-9,6,-5,9,10,54,46,-62
,-24,-21,57,14,-2,-11,-81,38
,-26,-5,-39,-16,-2,6,6,-5
,27,13,-3,1,1,-4,21,50
,24,14,69,6,2,-28,-107,9
,-11,-11,-105,-2,-2,-15,19,1
,-19,-1,127,37,5,12,45,-27
,10,-42,-128,-43,-5,-1,12,5
,-9,11,34,-21,-12,-19,2,41
,56,19,67,17,12,11,-33,-42
,-13,23,-72,-1,-6,-7,13,21
,-8,-19,-1,0,3,17,25,-20
,-10,-6,44,7,-7,-24,3,-15
,7,-9,-37,-12,-2,13,61,2
,28,37,39,9,5,18,10,-4
,14,2,18,0,-1,-14,-3,-34
,-22,-12,-23,4,6,1,19,-26
,-21,-1,-22,2,-8,-52,-84,16
,19,-19,-44,-12,1,46,22,37
,16,0,-40,-7,-8,8,55,5
,-11,0,30,4,9,19,-22,24
,33,22,24,7,-2,-20,-36,-20
,-32,-38,-56,-18,-6,6,19,74
,-24,18,40,-9,-2,-17,-76,-74
,30,11,-55,11,1,14,-13,7
,8,0,-34,-21,-9,-20,-39,14
,-22,16,38,2,-2,-36,13,29
,8,-13,-99,-15,4,38,24,-14
,8,-25,60,3,-6,-3,3,-23
,-21,-4,-23,-6,-3,-11,-12,24
,-10,11,58,13,1,-18,-47,24
,24,26,14,-2,-1,16,96,60
,-30,-24,11,7,4,5,5,-22
,8,3,-7,2,-5,-35,-86,-38
,1,3,40,-13,-6,12,85,59
,4,-2,-34,2,-4,-2,-26,-51
,5,-12,9,7,1,35,-18,48
,-50,-6,-11,1,-6,-8,-11,-54
,18,20,29,2,7,-29,13,39
,0,-3,-17,-5,-6,8,7,-41
,8,-12,8,-8,0,3,-76,-27
,19,19,-8,2,3,-4,46,23
,-3,-29,-60,-16,-9,-21,-93,-106
,1,18,67,18,9,30,124,59
,46,18,-47,-13,-5,-24,-18,-22
,21,29,85,20,5,19,-29,-4
,9,-14,-90,-9,-2,-4,29,-33
,-30,-22,90,-3,-4,-36,-7,6
,-11,8,-76,-21,-6,-15,-4,-13
,7,4,38,11,3,33,26,-8
,20,12,-49,-6,-2,-4,-17,-29
,15,6,39,2,4,-13,-43,-36
,-34,-9,29,11,4,18,96,39
,16,-3,28,9,-4,-42,-98,-35
,-54,21,19,5,-1,48,-10,17
,-45,-27,-97,-35,-7,-8,78,49
,17,-17,43,-1,-6,-18,21,11
,4,1,15,6,-3,-23,-33,-14
,13,33,54,8,2,20,-26,-9
,-29,23,2,19,13,40,49,11
,-34,-65,-63,-24,-11,-32,-1,-54
,-5,10,-19,-9,-6,18,-60,71
,30,22,29,4,7,-18,101,-76
,-10,-16,-18,-14,-6,10,-53,-1
,41,16,68,25,3,-5,3,-4
,-64,-44,-62,-20,-8,1,18,-23
,17,-10,-68,-4,1,10,-20,23
,6,-18,8,9,2,-2,13,-18
,2,-5,-2,7,0,4,-48,-12
,-14,-14,13,-15,0,-5,18,-25
,15,19,5,-1,1,-1,7,57
,16,33,89,8,-2,-2,5,17
,4,-16,-23,-3,-5,-3,33,13
,9,5,13,-2,-1,1,14,13
,-13,6,13,14,1,-20,-49,-18
,2,-1,-76,-3,4,6,15,-50
,-16,-4,10,-4,0,3,-98,-24
,22,6,9,10,3,7,91,17
,0,14,13,-6,-2,0,-29,-7
,7,-13,-114,-6,-3,-11,4,-7
,-9,-22,38,-21,-6,14,29,-15
,-23,-12,27,11,-2,-24,-23,13
,5,16,-16,6,9,56,82,20
,-62,-5,24,6,-7,-46,-128,-38
,8,11,17,3,7,28,120,-57
,24,-12,45,-4,-2,9,-15,23
,-15,-15,8,7,3,-2,30,52
,0,21,20,11,-1,-11,-31,-19
,3,-19,-62,-10,-4,-13,8,12
,-19,1,-11,-20,-2,53,25,-6
,-26,4,-6,-5,-7,-22,-17,49
,33,-37,29,3,0,10,57,3
,-17,51,-31,-3,3,-10,-8,20
,12,-1,32,7,-3,-13,-33,-14
,36,-20,-8,14,3,1,26,34
,2,29,-39,-1,1,6,-44,-30
,67,22,13,6,5,7,81,-31
,-12,-11,29,1,0,2,-37,76
,29,1,42,10,-2,6,86,-6
,13,16,4,-6,1,6,15,23
,-63,11,-17,-9,-12,-22,-123,-66
,-21,-41,-75,-11,0,8,88,-81
,14,8,-42,4,-2,-38,-51,-18
,-28,0,70,17,5,8,40,66
,15,-11,-32,-2,4,6,75,-41
,-12,16,17,-10,-2,20,-47,29
,-12,21,64,6,4,-30,-114,27
,11,10,-51,-7,4,26,2,9
,61,-23,119,24,6,11,10,-94
,-9,-34,-108,-20,-4,1,-9,-6
,-58,1,-49,-9,-11,-12,33,30
,-12,10,59,0,2,-15,-6,-45
,26,14,-45,-1,2,19,-83,-7
,6,17,84,20,5,8,39,19
,-66,-12,22,0,-5,-1,-8,-10
,0,2,-20,17,0,-28,-23,-8
,-3,-12,-2,0,4,23,127,-94
,19,49,35,8,1,5,-53,22
,-72,-17,-27,3,3,20,2,-24
,45,22,35,3,6,-4,14,0
,36,-8,-6,-11,-10,-2,-47,39
,-4,4,-12,4,-3,-23,-74,-4
,-58,-31,-1,-7,0,16,32,-35
,-4,-7,73,11,-3,8,-60,11
,35,3,-50,-6,3,14,6,7
,-24,-7,-37,-18,-7,4,20,9
,50,16,35,3,7,-4,-22,5
,18,21,35,6,-2,-2,13,2
,0,-49,-5,1,-1,0,50,26
,7,-8,-7,-22,-11,-4,-63,6
,-30,10,49,5,-1,5,-12,-12
,14,-6,1,9,3,6,11,0
,-20,43,35,0,-4,-10,6,-17
,-46,-33,-74,-8,3,4,28,48
,16,22,-49,-4,0,10,-73,21
,7,-15,20,4,-2,-20,19,19
,-37,-10,-78,-10,-1,0,-17,21
,15,10,3,-5,-7,-29,35,46
,14,-1,-33,-7,5,-1,-16,-58
,14,10,40,15,5,10,24,16
,22,-2,1,-14,-8,-12,77,-39
,23,-8,-40,-9,-4,17,-30,-11
,-8,21,16,9,5,6,42,32
,16,-12,-23,-2,-1,10,57,-21
,17,-20,15,16,-1,-14,-40,-21
,-23,9,46,-7,-4,-13,-81,-27
,40,-19,7,1,1,12,3,-35
,25,26,-8,-16,-4,5,-77,-28
,6,19,47,5,6,26,29,24
,-20,19,-3,2,5,26,105,27
,-29,-6,-64,-11,-6,-10,-111,-17
,19,-12,6,-2,2,42,91,44
,-1,11,25,-9,-10,-27,-55,-25
,62,14,12,17,12,9,122,37
,-14,-7,-48,-8,-2,-12,13,-21
,-22,-32,-10,-3,4,16,-99,-121
,29,15,50,8,-4,-2,34,47
,3,2,-60,-29,-11,-3,-98,-9
,-7,21,67,8,-4,-37,-23,-30
,38,2,2,8,3,13,31,24
,51,7,22,-5,0,-5,-11,-7
,-6,-21,-11,-7,-6,-21,52,9
,4,4,-7,-4,2,37,-28,10
,2,-4,-2,12,4,0,-12,-11
,-13,-1,39,6,-4,5,33,23
,3,-12,-62,-8,-5,-16,-52,-17
,-3,10,30,2,-2,-29,2,23
,6,-3,0,-14,-6,-3,50,26
,-46,0,8,4,1,12,33,20
,-63,-21,-4,-14,-7,-17,-76,-32
,-1,-6,12,-7,-5,-16,26,-4
,7,1,44,7,-1,-4,14,31
,45,6,-71,-9,5,8,50,-14
,-21,26,47,8,2,7,24,3
,12,-28,35,12,2,-6,-33,-10
,-14,-5,-52,-4,1,18,19,-4
,20,-8,-21,-8,-5,14,0,-27
,-14,6,13,1,1,11,-10,-51
,-26,-2,-42,-13,-5,-18,-3,13
,-14,1,59,-3,-10,-15,-27,11
,-6,-14,33,5,-6,16,-63,24
,24,6,-21,-5,-1,-11,43,-12
,1,-8,6,1,-6,-26,-3,36
,-23,26,92,16,-1,-8,-30,25
,6,-3,-93,-8,6,23,52,-20
,-28,-9,12,-13,-9,-6,-29,42
,14,-4,81,18,5,28,99,6
,10,16,-68,-31,-8,-10,-29,-7
,-17,-16,11,9,1,7,52,-9
,-38,21,25,10,4,-6,5,85
,-23,3,-26,-1,-3,0,86,-2
,20,9,-46,-13,2,-18,-85,0
,1,-1,110,23,6,31,58,-28
,1,-30,-76,-35,-13,2,-40,26
,7,14,75,-17,0,9,11,31
,17,-13,10,11,1,-1,-1,-24
,-12,8,63,0,-3,-18,-83,19
,14,-4,-20,9,-1,-12,69,3
,10,36,-22,7,7,22,-25,52
,-28,-30,34,4,-1,-14,-2,-58
,-1,1,15,0,-3,-15,-20,1
,32,15,27,17,7,27,-8,0
,-5,-16,-56,-22,-10,-31,24,108
,-6,17,18,13,-1,-26,-23,14
,24,6,38,11,13,5,-16,-2
,48,1,-56,-1,2,6,37,-7
,-2,10,49,-9,-8,-26,-42,-41
,-14,8,19,8,-2,1,-19,-1
,9,-33,-64,-13,-11,-11,-77,16
,-15,-15,42,3,-4,-8,-11,-36
,-61,-42,12,0,-4,5,-49,43
,20,8,-2,1,3,-13,11,3
,9,0,19,-12,-3,14,-20,-19
,-11,-20,-19,2,2,8,-18,-20
,-3,-2,-60,-2,-3,-6,-1,-20
,5,0,-5,-4,-7,0,26,-22
,-24,1,-32,-9,-2,-5,-24,-6
,2,-9,11,-1,0,-9,37,21
,29,13,48,14,7,26,-39,3
,-15,13,-4,0,-2,-4,125,6
,10,-15,24,4,1,-3,13,-11
,20,-15,31,9,2,-5,-70,5
,-1,15,26,8,-5,-40,54,15
,29,-10,-1,-11,-2,22,19,-31
,14,25,0,3,-2,3,41,-23
,-20,-17,-60,-12,-2,-2,-22,2
,-51,-19,18,2,-8,7,-30,-29
,16,12,7,9,-1,-12,-11,1
,26,18,35,-7,11,1,27,-3
,1,-2,-41,-10,-8,4,13,5
,0,-27,20,5,-8,-27,-47,-15
,-32,-39,-60,0,3,13,1,103
,7,-2,3,-9,-4,-1,-22,-47
,26,15,24,3,6,22,65,24
,16,-16,-31,-8,-8,-14,-1,-3
,-8,18,-38,-23,-3,-6,-37,-30
,10,0,3,16,1,-2,5,30
,20,-6,5,-3,0,-10,-10,26
,-32,14,7,4,0,5,-22,-49
,-9,6,57,15,-1,3,21,0
,9,-19,11,-1,-3,1,-54,39
,13,17,0,-16,-10,6,64,20
,-17,15,28,18,-1,-22,-50,-41
,-12,-28,-5,0,3,11,-52,-5
,-17,5,-18,-7,-7,-18,53,25
,18,31,57,13,8,19,-41,-20
,-14,-17,-9,-2,7,-3,28,13
,-28,-28,-27,0,-4,-13,-87,-26
,31,11,-13,-18,-6,13,68,-6
,-39,-17,28,5,-1,-15,-64,-61
,-19,-4,-45,-9,-3,-12,-23,-68
,-32,-18,-12,2,0,-2,-77,16
,-24,-7,7,7,7,9,54,-26
,-7,9,-6,-8,-4,-3,-7,-3
,-1,1,10,-1,-2,-5,-15,-4
,14,-5,36,13,3,-7,35,39
,-7,-30,-61,-13,2,13,7,-62
,46,-10,-3,-9,-5,0,-61,-20
,4,20,16,-6,-6,-6,71,46
,-1,-9,-74,-17,-5,5,4,-57
,3,2,-1,15,8,27,-2,7
,-1,-6,4,-8,-8,-30,47,1
,3,0,6,-4,3,32,-41,4
,-15,-11,-51,-7,0,-5,-5,18
,1,10,49,4,3,16,64,-67
,-9,-5,-21,1,0,-13,13,-11
,47,22,26,9,-2,-20,40,12
,-5,-7,-26,-10,-4,6,-1,23
,20,12,31,19,8,16,9,17
,24,19,-28,-24,-4,7,-78,-42
,-1,14,5,1,0,0,-34,-25
,0,-2,-22,-5,-2,7,-55,2
,-34,-2,-2,-2,0,15,102,11
,-19,9,-16,-6,-2,-8,11,-22
,-44,-26,-11,-2,-6,35,-31,17
,-5,-5,92,24,14,-3,-63,-38
,-32,-4,-18,2,-4,3,19,14
,-20,-2,-11,8,-3,-6,22,16
,-51,-20,-21,-25,-4,-31,-8,-6
,34,0,21,0,-2,24,40,46
,51,3,-32,-1,-3,-15,91,6
,-25,-3,9,0,-2,-8,-1,84
,35,-2,-10,-5,0,-14,-74,3
,35,23,51,12,8,32,76,33
,1,-4,-74,-6,4,-6,-57,16
,-25,16,13,1,-3,-13,16,-25
,1,7,-17,3,0,-11,29,-30
,-1,-12,36,-12,-5,16,-58,5
,-10,-8,23,-1,-5,-30,1,50
,-34,2,-38,3,1,22,23,-67
,-13,-2,14,4,-6,-19,-58,-36
,-6,0,26,-3,-2,9,-11,56
,-12,-13,86,12,4,17,-17,40
,24,9,-108,-24,-4,-10,-19,-21
,14,3,20,13,4,7,84,9
,24,11,-33,-17,-7,-29,-47,8
,-24,-6,12,9,0,24,-49,-10
,-43,-11,36,13,3,5,-11,79
,7,1,-54,-13,1,-10,-46,-16
,8,-14,-12,-8,-7,-16,20,-10
,15,-10,1,-3,2,22,-7,20
,82,22,34,13,4,-2,24,-19
,9,23,-36,-7,-15,-42,-102,-59
,-11,-40,4,-11,-8,-13,26,8
,54,27,110,30,16,25,16,8
,58,-12,-115,-51,-12,-8,-20,23
,-39,12,10,-4,-9,-19,-12,45
,10,1,26,13,5,-16,53,-36
,-17,-13,-12,3,-6,-3,21,-16
,-25,-7,58,18,5,8,24,-5
,31,5,-10,-5,6,5,1,10
,6,18,23,10,1,-12,-17,-1
,-47,-24,-42,-19,0,25,3,-3
,-34,19,70,13,1,0,-4,-16
,-26,14,44,19,-1,-28,-83,12
,17,4,-30,4,4,17,73,56
,62,12,36,2,1,20,51,57
,47,6,-9,7,-1,-9,-62,-46
,10,-6,-44,-26,-6,-4,48,39
,-54,-17,-8,-12,-4,6,-36,-1
,-4,3,21,2,-4,-10,-11,14
,-27,-17,-5,-11,-6,-9,-5,3
,42,21,8,6,-2,4,3,-20
,-23,12,1,9,3,-17,-12,39
,-63,-4,-11,3,2,0,-106,-126
,3,-11,8,-13,-6,13,61,45
,-26,-17,-29,2,3,17,-54,-26
,15,-26,-80,-23,-6,-29,47,-5
,9,0,-40,5,2,1,0,0
,-9,21,43,19,10,35,-16,-26
,13,0,50,1,-1,-9,19,-22
,0,13,9,6,-1,-11,-18,-2
,-28,-4,-40,-13,-4,-4,16,35
,25,-14,-17,-11,-10,-25,55,-128
,12,-7,-39,-3,-3,-6,15,31
,4,1,17,6,0,-15,-74,-73
,8,-9,22,13,3,15,15,15
,-32,-6,-8,-28,-6,4,-27,0
,-35,-38,19,-1,-2,12,-53,27
,18,-7,-4,-5,-1,-12,-19,-63
,28,-3,6,-4,-6,-11,-78,1
,26,39,10,17,7,18,94,49
,13,12,3,7,3,-2,-19,46
,-14,-12,-10,-6,-2,16,-57,15
,29,5,87,3,-10,-13,17,45
,-14,12,1,10,0,-9,35,43
,24,9,9,-17,-3,-23,53,-11
,20,-21,-19,-5,1,26,-15,31
,-3,-2,5,-13,2,-17,32,-32
,-31,-23,-8,9,2,-5,-57,19
,8,8,63,6,-5,-5,12,-30
,-12,15,8,0,-6,-35,-17,96
,28,-19,5,-1,4,20,-22,-38
,23,3,6,3,-4,-14,105,95
,-12,-4,-13,1,-6,1,-21,-14
,44,7,19,3,5,4,-17,46
,-26,-13,9,-2,-2,8,75,11
,-18,-9,-13,15,4,13,-51,-49
,-6,-2,1,-9,-3,-6,-11,-2
,9,12,33,0,-4,-21,6,-12
,-10,-10,4,-4,-1,3,-37,-1
,36,2,13,14,6,1,10,11
,52,9,-26,3,6,15,119,55
,5,-27,6,0,-3,4,-15,-17
,18,14,-12,-14,-9,-29,4,24
,-41,11,41,4,2,19,-28,3
,49,-27,11,5,-5,-26,-32,35
,-37,-2,-22,-15,-5,21,40,-44
,34,-6,63,6,-5,-29,-13,-58
,23,-17,0,-7,-2,10,13,34
,-41,10,-26,0,-1,-6,-25,-10
,5,-1,-27,-14,-3,-1,-29,24
,-17,22,-6,10,9,22,87,-23
,-13,-16,-16,-16,-9,-8,-100,-18
,-43,1,53,7,-2,1,84,15
,-16,-14,-55,-6,0,-13,19,31
,8,11,40,-4,-2,-4,-16,35
,-25,-12,32,6,3,19,-5,-47
,-3,-20,-70,-6,-3,-7,3,-13
,3,-15,1,-14,-9,-4,-20,16
,4,-22,39,4,-2,-3,-62,-61
,0,43,-56,1,-3,-20,44,69
,12,-14,-32,-8,-1,20,52,-18
,18,9,50,16,-1,-9,-31,-4
,-13,9,-83,-23,-3,12,17,-10
,-24,-16,19,-3,-4,-27,-47,0
,-38,15,36,-4,-5,-6,-27,16
,-8,13,-24,11,7,7,-37,-50
,9,-31,-1,13,0,-17,31,14
,28,16,21,2,4,19,31,-6
,-20,0,-35,-8,3,-6,-56,-21
,-16,-5,32,9,9,8,59,1
,-38,6,64,-10,-9,-21,-70,-53
,-16,-26,-95,-16,-6,4,-21,-2
,19,16,29,-2,-5,-15,9,-24
,-28,-16,-9,0,-3,3,-36,39
,3,-4,-14,4,-1,-6,-14,1
,18,3,9,-1,0,23,36,-19
,-7,17,67,9,-3,-2,-43,9
,-21,-28,-45,0,1,8,3,-8
,-61,15,12,15,0,-18,-27,-18
,-12,12,-12,-15,-9,-29,-9,-58
,-13,-1,-60,-14,2,-2,90,61
,7,-11,90,16,6,27,15,66
,-40,10,12,5,-6,-13,-34,-67
,27,1,1,-4,0,-2,37,2
,-26,2,33,10,-5,-15,-32,-4
,-12,2,-30,-4,-3,-1,-26,16
,-11,-7,-29,-25,-5,3,29,51
,36,27,63,15,1,-16,-35,-38
,61,14,-62,-8,-7,-5,5,2
,-30,-35,-25,-7,-2,-13,-58,0
,41,14,52,8,2,-6,78,57
,1,10,-16,-7,-2,1,-92,-73
,31,-11,-10,15,15,37,116,64
,-36,-20,-12,-5,-5,-4,-53,-11
,20,-13,-41,-26,-3,26,-41,-38
,28,-16,73,8,0,3,6,4
,-23,25,0,6,0,6,-11,24
,-12,25,9,4,-2,4,98,21
,29,-22,-5,-6,1,5,-20,2
,23,24,-12,-6,2,-2,-38,-47
,10,20,45,-8,-10,-28,-7,-4
,-12,-61,48,-1,0,23,60,29
,-17,30,-38,-10,-6,-10,-77,-7
,70,10,9,-8,-1,-1,-15,-25
,-31,1,-12,12,1,-17,61,-9
,-17,-15,28,-2,-2,-2,-55,69
,17,0,-16,7,5,-16,-34,16
,2,-8,-10,3,3,13,76,56
,32,43,26,6,-4,-17,-63,-47
,26,-11,-90,-10,-10,-26,25,17
,-12,-14,-18,13,7,12,-42,20
,-75,-3,-34,-5,-3,-2,74,27
,-32,8,-39,-4,-4,-23,-21,31
,24,17,48,14,3,8,-30,-49
,82,19,-35,-7,2,15,82,-5
,-1,-6,-41,-25,-9,-23,17,-45
,1,-10,15,1,1,24,15,-10
,-3,5,7,0,-1,-28,-43,-56
,-3,-10,29,4,16,3,-19,-22
,3,-17,-111,-26,-10,-29,76,39
,-37,11,22,-5,-3,-2,8,24
,1,33,81,4,-4,-2,-57,14
,-27,-44,-52,-13,-8,3,-46,13
,-19,5,-2,4,2,3,46,3
,1,-2,4,-9,-7,-44,-33,10
,-34,-35,-16,-7,-2,14,40,33
,-5,30,35,13,4,32,68,-14
,6,13,-1,-4,0,1,-69,-32
,52,4,70,5,-6,-24,86,41
,6,-8,19,13,6,20,31,35
,-7,2,3,0,-2,0,-10,-1
,5,-4,92,13,7,1,-1,-58
,-17,-1,-71,-13,-3,27,-89,26
,45,12,-50,-16,-4,-1,26,11
,28,10,40,6,5,44,123,-24
,-24,-10,49,3,-5,-17,-30,-4
,27,-15,-64,-3,-3,9,-11,4
,-14,14,-27,-1,-2,-17,-12,-51
,-22,-13,25,-15,-3,5,-56,-11
,30,-1,-97,-10,-5,0,-21,39
,-7,-1,45,12,2,-18,7,30
,29,11,51,2,3,28,-41,-8
,-31,-26,-33,-25,-6,19,120,7
,-21,20,72,11,-11,-36,-13,6
,-41,8,15,21,12,34,16,-1
,-7,-41,-83,-29,-4,9,-22,2
,-16,-19,7,0,-7,-22,-67,-21
,-22,-4,18,9,7,21,26,4
,1,-16,-20,5,-5,-21,-39,-13
,-53,-11,-7,1,-3,-3,-54,61
,-11,29,34,7,6,14,67,33
,55,13,-29,10,-1,-28,-54,16
,-33,-20,-21,-9,-4,-18,-85,-22
,20,-28,-25,5,3,-2,-23,68
,8,23,6,7,1,-5,25,-18
,24,14,26,-4,1,31,85,39
,21,-1,3,-4,-6,-8,6,-57
,-75,-13,-16,0,-1,11,-51,26
,13,-16,12,3,-4,-11,18,-17
,-44,3,-26,0,0,-14,-46,20
,5,-3,-51,-3,3,16,18,74
,-11,27,69,-4,-3,-1,-53,-63
,23,5,2,3,2,-13,15,-13
,-27,-2,-4,3,2,10,-50,-61
,-25,-15,-24,-23,-12,-6,29,42
,-2,1,55,13,7,6,15,-20
,11,-9,16,-4,-5,-29,88,-53
,-8,9,10,-2,8,69,38,12
,29,18,-23,4,3,0,-56,3
,61,-1,2,0,-3,-11,-97,26
,-26,-13,44,3,-3,-12,29,-15
,-12,5,1,-7,-4,-20,46,-9
,-27,-44,-82,-5,4,-9,-76,-22
,25,-11,-63,-6,-10,-20,48,40
,-33,-6,32,-3,5,9,-88,60
,62,21,16,14,0,-8,120,19
,-20,16,34,1,-2,20,16,3
,-13,9,-12,-2,2,-6,53,70
,7,-14,30,2,-2,-12,-43,-15
,6,7,-74,-17,-2,8,-2,11
,-38,-14,1,3,1,-19,-29,-24
,31,10,33,4,3,23,-3,28
,32,27,81,-2,3,25,-30,-14
,2,-74,-62,-28,-19,-69,53,25
,1,24,21,7,14,65,102,-2
,-51,-39,-25,-7,-5,-27,-40,2
,14,47,67,6,-2,6,-84,-25
,-3,-9,17,10,-1,28,-34,-12
,-26,-28,-59,-1,-4,-6,-19,9
,24,7,9,-1,2,-7,22,-7
,-24,21,-3,7,-2,3,-28,16
,-8,-17,-12,1,3,-20,-58,-34
,40,-7,5,-8,-4,-19,36,13
,-34,48,23,2,0,17,4,-9
,-16,-8,-24,-4,-1,-12,29,21
,57,-8,25,1,-4,-21,29,55
,34,-9,28,6,0,13,10,10
,-37,-24,-75,-17,-4,-21,47,-38
,9,22,16,4,-3,-45,-81,-24
,21,1,32,-7,5,63,80,24
,-14,-25,-43,-1,0,26,71,10
,22,11,38,-1,-9,-78,-32,60
,10,-6,-31,6,-3,-6,-48,2
,14,30,36,-18,0,18,-64,4
,-37,-40,-34,-20,-14,-73,-55,32
,26,29,39,9,2,-6,-54,-4
,-11,10,-1,-4,-2,-4,57,28
,-4,5,31,14,18,93,45,-32
,29,-15,-52,10,1,-41,-62,-4
,-18,-26,3,-19,-5,44,101,67
,4,3,21,4,7,16,34,-29
,18,-12,-83,-21,-11,-40,-40,-78
,6,-10,-17,4,7,-7,-23,-36
,10,14,-2,8,-4,-42,-39,-41
,19,-23,2,-27,-5,27,23,31
,49,-10,32,13,2,4,12,-14
,-12,51,-44,-10,-16,-42,-25,67
,18,-10,65,14,-1,-25,-17,-27
,-17,11,-6,3,16,55,-31,-48
,-10,-16,-14,-13,-8,5,53,28
,-5,-25,64,14,15,82,45,11
,-17,1,-3,5,1,-3,70,66
,20,7,33,9,15,36,-128,14
,-10,-6,-30,13,6,29,86,-30
,-18,-14,2,2,-5,-4,9,50
,-43,21,-2,-6,-8,-30,-48,-31
,32,6,-41,5,-6,-34,-16,-43
,1,14,-29,-20,-7,-21,-66,13
,-22,7,40,21,8,36,73,45
,-34,-34,18,-11,-9,-6,-21,-8
,2,-20,-8,-6,-7,-45,-54,-26
,10,12,51,-1,0,30,-33,4
,18,-10,-30,-23,-4,7,-28,-10
,12,7,105,16,-2,-22,57,6
,-16,-26,-63,-6,-4,-4,-60,2
,2,-10,25,14,-3,-57,13,6
,45,7,-65,-28,-1,58,28,26
,-22,9,16,-3,-3,-6,-47,55
,12,-2,61,17,7,4,107,-10
,9,-20,-21,-8,8,61,-26,-40
,64,51,-2,10,-2,-13,-23,-20
,-90,-45,-4,-8,-3,2,-7,-7
,-34,-9,40,4,-6,-31,17,-3
,79,0,-32,9,5,39,0,-17
,-35,-11,-6,0,1,13,-66,10
,1,-10,35,7,-4,-5,-27,9
,-19,35,-23,-5,1,-23,-6,12
,-23,-23,16,-2,-1,18,11,11
,32,27,-34,-1,-6,-38,-29,-29
,-1,-32,0,0,-8,-18,-40,-15
,-95,-35,15,-10,-5,1,15,-22
,-22,3,-5,-4,2,-2,-24,-23
,-31,-42,-28,3,1,-32,22,5
,47,22,16,4,-6,-5,28,51
,30,-13,51,11,0,-7,-53,-3
,-6,13,-27,-5,4,19,57,-12
,-21,-1,-9,-13,-10,-43,-59,31
,-7,-27,17,11,5,-2,-15,-39
,0,2,-47,-18,0,9,-5,49
,31,11,20,1,3,10,-40,-16
,-7,1,-68,-3,-3,19,16,30
,-24,4,13,-6,-5,-36,-41,2
,-11,-11,14,-1,2,-5,52,-7
,20,24,-32,-9,1,-9,24,18
,5,-14,37,7,6,20,4,-7
,-17,-2,-20,6,-2,-15,20,14
,-8,-6,12,-9,-8,-24,39,-17
,21,5,5,17,12,36,-55,-28
,-30,17,0,-17,5,41,67,21
,-16,28,32,2,-19,-99,-60,-10
,-8,-22,1,-3,8,83,-73,-38
,-8,-30,25,9,1,15,69,-29
,11,14,34,1,-5,-17,-23,-22
,5,14,29,4,-3,-23,12,4
,6,-19,-56,-2,-6,3,-101,-32
,43,10,39,7,3,5,-28,25
,-1,-13,10,-7,-4,-5,25,0
,10,-22,-57,-8,-3,-8,-15,22
,-7,17,63,9,-4,-8,-79,-25
,-13,0,-52,-22,-5,11,-7,-63
,-12,33,76,12,0,-7,7,15
,-26,-1,-55,1,0,-8,-4,26
,43,-10,-49,-5,0,-17,0,2
,1,-3,-37,-11,-4,9,0,-14
,-7,29,99,16,-7,-39,-125,-21
,23,0,-28,6,0,12,81,66
,3,-13,2,7,15,66,16,-26
,-27,16,-13,-17,-13,-27,-30,-13
,-2,-42,-45,-17,-10,-7,52,-25
,7,0,54,10,5,3,-66,-23
,-8,-11,-24,-4,-11,-55,46,8
,43,14,70,20,15,84,71,-11
,-11,31,-14,-12,-10,-45,52,-50
,-37,-40,-14,-16,-1,68,93,27
,-55,1,34,6,-6,-23,19,72
,28,-7,-46,-16,-4,-25,-33,-32
,39,4,52,-2,-5,-9,-35,-16
,-63,-21,-80,-27,-17,-43,-52,30
,-3,-14,75,7,4,25,32,-19
,-28,-8,-20,2,1,-22,-55,-17
,-13,-1,70,-7,-9,-56,-10,-30
,-10,-1,-35,-21,-4,16,-33,-33
,20,-15,2,4,2,31,30,20
,36,-17,-41,3,2,12,24,-40
,49,40,13,12,2,-14,-92,-15
,11,8,13,7,4,-7,-44,45
,17,-3,-81,-12,2,27,24,20
,19,18,67,11,-1,-3,49,-8
,17,2,38,-2,1,-9,-104,-20
,-20,-9,-49,-12,-16,-60,7,36
,-1,9,-28,-2,5,52,46,10
,1,-2,27,11,5,12,19,-37
,-29,9,27,2,-6,-40,7,-21
,12,11,4,5,1,-7,-55,-8
,-19,-2,-3,5,0,1,-47,-19
,6,-3,-18,0,-4,4,36,11
,-19,22,-76,-8,-4,9,-28,-27
,6,-20,-21,-5,-5,-13,15,6
,20,-21,38,-5,-7,-16,57,65
,5,32,42,17,7,-4,-88,-33
,-2,-18,9,-10,-2,5,38,14
,-24,-23,-12,-12,-7,-41,-57,-2
,-8,-6,-2,8,8,39,70,6
,20,25,19,8,1,27,-17,8
,11,-26,-15,-9,-8,-13,32,22
,-21,9,13,6,0,-38,-13,-3
,11,9,-19,-2,-3,-6,-55,-33
,8,-8,17,-2,-8,10,44,66
,-2,10,31,20,9,2,-22,-41
,-27,-11,-100,-36,-16,-33,57,22
,-5,-16,15,-5,1,14,-68,-28
,0,7,40,21,4,24,75,20
,-61,-14,-31,-40,-14,-32,4,-46
,5,-3,7,9,4,22,-14,-10
,-29,-41,-5,-5,0,-18,-49,3
,-13,-2,55,16,-3,11,-4,-28
,32,17,33,16,4,-2,36,23
,-33,-4,-7,-14,2,11,-67,-32
,6,22,9,5,-6,-23,-1,6
,-14,6,52,14,5,56,47,-35
,-3,6,-58,-9,-5,-3,31,4
,14,-15,11,9,13,9,-10,16
,1,-14,-64,-19,-7,-7,-81,-56
,1,18,34,10,2,-10,27,39
,-29,-39,16,5,-1,-22,22,8
,-16,28,-27,-5,-4,-19,22,-11
,33,8,-40,-1,-2,-38,19,67
,14,-2,-16,-7,3,46,51,-24
,-5,7,45,10,2,21,8,29
,32,7,21,16,-4,-12,-30,-31
,-48,-16,-16,-28,-6,-5,60,-15
,52,10,16,7,3,-32,-4,16
,23,0,-63,-18,-14,-4,-55,4
,25,3,-8,1,2,21,63,4
,41,16,93,19,3,6,8,54
,3,-6,-59,-16,-7,-2,4,42
,48,38,58,9,-2,3,45,24
,-69,-27,-32,-4,0,-39,-102,-10
,6,8,39,19,9,22,37,-46
,33,-2,-65,-26,-3,7,17,8
,-8,-28,-61,-3,-3,10,33,9
,1,4,76,9,-6,-18,-102,33
,0,32,-76,-10,-3,-3,36,-11
,10,-3,15,3,-1,-25,-35,-1
,-51,-18,-33,-31,-10,-9,-44,-32
,-4,15,48,12,1,6,65,-58
,-8,-15,4,-16,-7,-4,-31,14
,10,6,102,37,5,4,-28,14
,18,-6,-73,0,5,-13,105,-26
,7,-10,11,-36,-8,11,2,-17
,-30,-10,21,15,-4,-3,-10,-15
,0,-4,-36,-21,-12,-28,67,-24
,-14,0,1,12,5,-4,-51,0
,-21,10,-38,10,8,22,-17,11
,13,-11,97,7,-5,-28,-16,-39
,17,9,18,7,0,18,-8,36
,23,11,-59,-33,-12,-5,2,6
,54,21,-6,16,13,21,-24,8
,-11,-23,-24,-12,-3,0,-12,17
,6,2,27,15,0,-8,3,-7
,51,-8,-46,6,3,0,17,0
,17,12,-8,-28,-12,5,52,-10
,64,27,54,13,14,46,2,75
,0,-15,29,12,3,-34,-31,3
,-58,24,33,-1,-4,9,118,103
,-25,-35,-8,-10,-8,-21,-58,-12
,-18,35,48,13,0,-9,-34,-22
,46,4,77,15,8,2,9,9
,-2,-10,-52,-18,2,10,-46,-31
,17,2,16,7,0,-11,94,14
,-60,-10,-28,0,-3,9,2,20
,-23,10,107,3,-2,9,-8,4
,-22,-27,-95,-27,-9,-29,-23,-22
,8,27,2,0,5,26,-11,-45
,14,-36,-1,11,8,29,-6,-9
,7,-6,-17,-16,-6,-19,-33,-9
,19,31,89,10,5,10,97,-5
,-42,-14,-85,-14,-1,39,52,5
,-1,-18,29,-5,-9,-35,-59,-25
,5,7,34,15,2,-19,16,25
,-4,11,-2,-34,-4,19,39,9
,-43,7,10,13,-1,12,-27,-5
,6,4,48,14,4,-3,11,11
,74,7,-52,-2,3,3,-32,-34
,-14,32,12,4,-5,-10,4,35
,-13,1,20,6,8,40,-4,9
,-23,-28,-58,-7,-6,-39,5,-48
,20,2,-71,-15,-2,26,10,3
,-3,26,64,12,-1,-9,-25,-23
,10,18,25,2,0,9,-34,-17
,-1,-14,-61,-16,-8,-25,72,-29
,1,-6,44,0,2,7,-23,4
,6,0,14,7,5,-1,7,-3
,-17,-12,2,-20,-9,5,20,22
,-22,-26,-75,-12,1,6,-49,0
,-66,-5,10,-8,-10,-8,94,-31
,4,13,-14,6,-1,7,-42,-5
,-2,6,11,-2,0,-5,-9,46
,-5,8,38,12,5,4,-71,-35
,-8,-23,-29,-18,-7,-6,26,38
,-21,-21,5,-5,-1,10,-60,-9
,-46,4,-8,5,-1,-9,-3,-60
,11,-17,-11,3,-7,-5,-87,-25
,9,16,30,0,1,-16,-8,12
,2,12,-60,-10,-3,7,35,-16
,-21,-20,-4,16,-3,-27,-88,-24
,27,-12,-3,-14,7,62,103,57
,17,4,22,12,2,-13,24,40
,-23,39,38,-12,-7,-1,54,-37
,-30,-7,-85,-3,4,31,-6,6
,-6,-6,51,21,5,-13,-66,-42
,11,11,-55,-9,0,5,-35,-6
,25,-29,-52,-5,1,2,124,-9
,10,7,31,-1,-3,-3,20,18
,5,9,18,-11,-7,-17,-45,20
,-54,19,25,2,4,16,2,-55
,18,-26,-88,-14,-10,-25,5,-16
,4,7,-27,0,3,-1,25,-1
,-35,-10,53,6,3,-3,-44,-4
,16,-3,-23,2,-2,-4,35,56
,9,-13,51,0,-9,-7,-78,-32
,-6,27,-83,-13,-1,-16,19,-34
,-29,-8,26,10,1,18,91,23
,-11,-23,-48,-15,-2,-4,-16,18
,54,-27,46,10,2,17,-84,-15
,39,23,8,3,-6,14,6,4
,-47,7,59,5,-1,-6,-33,-4
,19,-15,-71,-13,-17,2,-5,-7
,-30,12,-1,-4,2,-1,2,16
,-9,-22,43,9,1,9,56,63
,17,14,-4,5,7,15,-27,2
,29,1,-19,-6,-5,-20,-23,-38
,-8,-5,-19,-10,-2,9,-24,-33
,-28,8,28,8,-8,-24,-49,14
,12,18,24,1,8,-5,33,81
,-25,2,-2,16,-3,3,88,-7
,-38,-1,-27,-12,-4,-11,71,-11
,21,-45,-2,-7,-2,4,-7,29
,18,48,59,12,-6,-4,-47,13
,41,8,-54,3,6,-7,-2,47
,32,9,30,-7,4,36,-53,-54
,-18,-19,-19,-15,-8,-28,40,25
,-12,30,99,31,6,19,32,-11
,6,-17,-98,-25,-4,-27,6,-7
,-10,-5,-50,-6,3,0,-89,-53
,4,1,70,9,-4,3,-13,-7
,4,17,-79,-20,-4,-4,-23,11
,-25,3,35,9,-1,-8,1,-11
,34,-9,-21,-3,3,-17,-10,-9
,-13,18,48,-7,-2,15,-5,-9
,24,-25,-27,-4,-5,-1,8,5
,3,10,24,-8,-3,1,-40,67
,-22,-18,-73,1,1,8,32,-96
,9,13,0,0,8,5,-12,-36
,-5,3,71,11,-2,-20,58,13
,-18,4,51,14,1,6,-25,-20
,-37,-34,-20,-7,11,15,104,-33
,-3,38,42,6,12,-2,-66,-30
,29,-16,21,-6,-11,-35,23,19
,3,13,37,6,-5,-14,-39,-7
,-18,-7,7,-3,-9,8,4,10
,2,-16,-38,7,0,2,-20,-13
,-24,0,-25,-10,7,7,-54,-31
,-3,1,38,-4,-3,-12,58,-5
,-24,17,44,7,-4,-13,-25,10
,-12,-2,-36,1,1,-3,-60,3
,-4,-39,-33,-13,-4,-4,10,6
,-17,16,36,10,3,0,-42,-19
,-4,-2,23,19,2,-9,55,-15
,-34,-17,8,-5,7,-4,71,1
,-25,10,32,4,2,4,-57,3
,16,-23,-73,-11,-9,17,-5,-39
,38,35,27,13,14,15,-87,6
,-9,-25,-76,-23,-8,-5,-8,-46
,41,25,9,9,3,-23,-15,-54
,3,-16,-15,-12,-7,19,27,2
,-48,-32,34,2,-13,-19,-44,38
,9,6,-9,7,7,3,-77,-32
,5,-2,-15,-1,-2,-4,-10,-2
,-2,11,-15,0,-3,7,-9,4
,7,0,14,-13,-8,-21,-7,6
,-12,0,23,9,3,2,26,-16
,-20,16,-86,-10,0,-3,-4,3
,2,-14,26,2,-5,5,-13,11
,15,10,14,9,1,-14,16,47
,25,-10,5,0,10,14,66,-59
,33,-16,-1,-1,-13,-50,-96,6
,38,-2,-74,-20,-11,15,24,-6
,6,16,-18,0,2,19,5,-4
,26,2,55,-14,-7,-11,-16,17
,-36,-41,20,8,-8,-8,-10,-55
,0,-12,-106,-19,-9,-10,-16,4
,34,10,120,14,-1,-1,17,71
,-57,-12,-23,-10,-1,-1,-3,-40
,24,-4,9,-3,-8,-4,-24,11
,6,-5,18,-4,11,-4,-22,-18
,-28,9,-79,-11,-1,5,11,28
,46,37,73,16,4,-2,-76,-77
,5,6,-49,-17,-2,-4,22,-34
,-1,8,36,11,6,12,-7,27
,-51,6,-14,1,0,11,-33,19
,18,-3,-7,11,2,-12,-44,-41
,-10,-3,-38,-7,-2,0,1,-7
,-15,7,28,4,-3,-16,21,-6
,-65,-7,18,1,3,10,1,47
,-15,9,-21,-9,-10,-12,-88,7
,-23,-16,30,9,-1,6,80,-7
,-51,-21,-48,1,8,0,-19,-6
,12,-33,-20,-14,-1,2,-21,-35
,19,21,80,20,-2,-4,-20,12
,13,15,-124,-20,3,0,15,14
,-7,-11,61,-18,-11,-42,-59,47
,-18,0,54,12,-3,-8,-1,6
,-54,19,-49,-17,-10,-4,-27,11
,24,-19,66,14,18,22,101,-2
,23,5,-41,-21,-9,-9,-56,-7
,8,32,36,9,4,3,43,8
,12,-32,-59,-2,-7,-3,-55,-1
,33,-15,4,19,9,13,-30,20
,10,5,-78,-45,-7,-4,42,-30
,-12,11,49,6,-6,-5,-36,6
,31,6,-40,5,-7,4,14,7
,8,16,14,1,-4,-10,-28,-17
,-31,0,70,30,11,-13,14,30
,6,-26,-105,-30,-15,-24,-9,-24
,23,29,99,14,5,24,18,-28
,35,-7,-7,-4,5,28,37,52
,37,-13,-3,9,-3,0,41,33
,-47,-20,-60,-29,-15,-17,14,-17
,20,21,24,-3,-6,-9,-1,31
,12,7,85,15,-1,23,20,-30
,-15,1,-79,-4,6,4,-18,-35
,-19,-26,-18,-2,0,-8,-36,-16
,-10,3,28,1,3,1,-63,-35
,22,27,-20,7,-2,0,77,29
,2,-7,-4,3,0,-6,-9,27
,-29,6,38,-7,-6,-1,-13,-30
,13,-28,2,9,8,11,-4,4
,8,21,14,6,1,-10,-12,-4
,15,3,-9,2,3,4,6,52
,-35,-36,74,1,-6,-5,-6,18
,18,13,-25,1,-2,-1,-46,-16
,-17,6,1,-5,-3,2,29,-1
,9,9,8,4,4,-4,-14,27
,33,10,16,8,-4,-2,56,10
,5,-16,-10,-11,-2,-26,-30,-61
,-19,16,33,1,1,14,-88,-54
,-12,-47,-71,-3,3,1,30,-22
,2,-27,-20,-2,-3,-9,-3,-5
,-5,-2,30,0,-6,-5,36,4
,-22,-8,-22,0,-1,-4,-37,-30
,-4,23,51,15,9,14,46,29
,3,-8,-14,-3,1,3,-20,13
,-22,-17,-73,-17,-5,-2,39,-4
,-3,-4,-1,3,1,-4,-23,22
,0,14,12,2,-4,-6,-18,10
,-1,-9,-6,1,4,5,29,8
,13,10,41,2,-13,-4,21,-15
,4,-1,5,0,1,-11,7,-2
,-3,6,2,-4,-7,1,0,-5
,-7,-2,-10,-3,-8,3,-29,-5
,-8,-12,4,2,9,2,13,13
,10,9,3,10,0,-4,6,18
,-3,10,11,-6,0,7,-2,-10
,-11,-32,-12,-18,1,2,0,0
,8,34,3,4,-13,-9,0,2
,0,-15,-13,3,22,-1,-5,-1
,-2,5,-9,-17,-7,-1,9,-10
,2,0,-6,-8,-9,-2,-7,1
,-5,1,41,18,12,3,9,1
,-3,-2,33,65,-11,-9,-9,3
,0,-6,36,-46,-12,-2,-4,2
,-1,-1,-44,-51,17,6,10,4
,2,-6,-7,0,9,4,4,-5
,-1,9,-23,6,-24,-10,-8,-2
,-4,-9,-21,-6,8,0,-2,-2
,-1,-4,11,11,-7,4,1,-4
,-3,9,9,8,10,-2,0,-4
,3,21,-57,-89,19,7,7,8
,-1,-12,-38,-16,-7,7,0,-1
,-3,1,-54,-9,20,3,0,0
,1,-8,2,38,-13,-4,1,-1
,-1,2,29,28,-15,-11,-6,-1
,-4,4,27,-5,-14,-7,-2,-5
,-1,-2,0,-33,-6,0,-2,-1
,0,-5,-55,-4,16,8,2,2
,-1,1,24,24,4,-4,-3,-1
,-3,1,-3,23,5,-4,2,0
,-1,-1,0,-29,-9,-5,-3,0
,-2,-5,-16,4,14,12,2,1
,0,-1,15,20,-6,-3,0,-1
,1,-2,-2,2,3,-2,-1,-1
,-1,2,-6,-30,1,0,-1,0
,0,1,4,12,-18,-11,-1,-1
,-3,-5,0,-7,-2,2,0,-2
,0,-2,-7,-11,7,0,2,1
,-1,1,-3,-13,9,5,-1,-2
,-1,-2,-2,7,5,4,0,2
,-1,-3,11,15,-18,-5,-4,-2
,-1,0,-1,-3,2,-3,-3,-3
,-2,-1,-2,-10,0,-6,1,1
,-1,-2,-4,4,3,-1,-1,0
,0,-2,5,7,-16,-3,-2,-1
,-1,0,0,-1,11,4,2,-1
,0,-2,-3,-12,2,1,0,1
,-1,0,1,3,1,5,0,-2
,-1,-2,-3,-1,-10,-6,-3,-1
,-3,-1,3,-13,-4,-8,-3,-2
,-2,-2,-9,0,-2,0,-3,-2
,0,-3,-3,14,13,4,2,-1
,-1,0,4,11,-7,-4,-2,-1
,-1,-3,-5,-2,-13,-2,-2,-2
,-1,0,3,2,9,1,0,0
,-2,-1,-2,-11,-8,-9,-3,-2
,-1,-1,1,7,0,-1,-1,0
,-1,-1,3,10,12,8,1,0
,-1,0,-2,-23,-8,0,-1,-2
,0,-1,-4,8,-4,0,-3,-1
,0,-1,-1,-10,-16,-8,1,-1
,-1,-1,-1,-2,6,5,-3,-2
,0,1,-2,1,11,2,0,-1
,-1,-1,0,-5,-11,-4,-1,0
,0,-2,-4,-11,4,-5,-1,-2
,-1,0,0,1,-14,-6,-1,-1
,0,-1,0,2,-4,3,0,0
,0,1,0,-2,9,-3,-1,-1
,0,-1,1,4,1,3,-2,-1
,-1,-2,-4,1,-11,-2,0,-1
,-2,-1,-2,-7,7,0,-1,-2
,0,-1,-3,-2,-4,5,1,1
,0,1,2,6,4,1,-1,0
,0,-1,1,-1,2,0,0,1
,0,-1,-1,-1,-9,-6,-1,-1
,-2,-2,-1,-4,2,-4,-2,-1
,-1,-2,-1,3,-1,1,-2,-1
,-1,0,0,-2,-11,-1,0,-2
,-2,-2,-2,-3,4,-3,1,-1
,0,-1,-2,3,9,9,-1,-2
,0,0,2,6,13,7,1,-2
,-3,-1,-3,-9,-9,-8,-3,0
,0,-1,-3,-3,-15,-3,-1,0
,-1,-1,-1,-10,0,-2,4,0
,-2,2,2,22,20,5,-1,-1
,-2,0,1,-33,-9,4,0,-1
,-1,-1,1,25,-7,-2,-1,-2
,0,-2,-1,3,18,4,0,1
,-2,-2,0,-12,-18,-6,-4,-3
,-1,-1,1,6,3,0,0,-1
,0,1,1,-16,-2,-3,-3,0
,-2,-1,-2,-4,-8,-7,-5,-1
,-1,-1,-1,3,-13,1,2,-1
,-3,-2,1,5,10,-2,-3,-2
,-3,-3,-2,-8,8,2,-1,-1
,-1,0,-3,5,-19,-16,-2,-2
,-2,-2,-4,-23,-4,10,-7,-4
,0,-1,0,11,3,5,1,-1
,0,1,1,2,7,-4,2,-1
,-2,-3,-2,5,1,4,-1,-1
,-1,0,5,1,-16,-11,-1,0
,-1,-1,2,-30,-14,-1,1,-1
,0,-2,-15,9,10,2,-1,0
,-1,0,8,28,2,-1,-3,-1
,0,-1,-1,-1,-3,-5,1,0
,2,0,4,12,0,0,-2,-1
,-1,-1,6,8,-12,-8,-2,0
,-2,0,-6,-20,-6,1,0,-1
,-1,-1,5,11,2,-1,-3,-1
,0,-1,2,1,16,-2,-2,-1
,0,-3,-2,2,-15,0,-1,-1
,-1,-2,2,-7,2,-1,-1,-1
,0,-2,-12,-30,5,3,1,1
,-3,-4,-11,-1,-3,-1,-1,-1
,2,0,7,32,-4,-14,-2,0
,-3,-3,0,-5,-6,15,1,-3
,1,1,0,0,26,3,4,1
,1,-2,-8,-3,16,4,0,0
,-1,1,0,-18,-6,0,-2,-1
,0,0,1,-16,-23,-17,-4,-1
,-2,-2,-3,-2,-4,1,1,-2
,2,1,-3,19,13,1,-2,-1
,-2,-4,-1,-4,2,3,-2,-3
,0,0,2,10,-8,-7,-2,0
,-1,-1,-1,15,1,0,-4,-2
,-1,-2,5,29,7,3,2,-2
,-3,0,-4,5,7,-1,-1,-1
,-1,0,-6,-17,-21,-6,-2,-1
,-2,-2,-8,-37,5,5,-1,-2
,-2,0,-4,-1,9,0,-1,-2
,1,-1,5,21,-8,-9,-6,-2
,0,-2,5,10,2,-2,2,0
,-1,0,3,-20,-16,2,-2,-3
,-1,-4,-6,-7,4,-4,-3,-1
,0,-1,-2,33,22,14,3,2
,-1,-1,3,8,-6,-4,-4,-1
,-1,-2,1,-4,2,-2,-1,0
,-1,3,3,-3,-17,-5,0,0
,-2,-2,-1,-31,2,-2,-2,-1
,-2,0,-1,-4,2,2,-1,-1
,-2,0,-1,9,1,-3,-1,-3
,0,-2,-2,-19,1,2,-2,-1
,-1,-1,-1,14,-7,-9,-2,-1
,-1,-2,2,-9,-5,6,1,-1
,-1,-2,-9,-35,10,2,1,2
,0,0,0,15,-6,-3,-3,1
,-1,-1,2,-11,-3,1,0,-1
,-3,-2,-8,-4,-13,-7,-3,-3
,0,-1,1,1,4,1,0,-1
,-1,-2,0,-8,13,4,1,-1
,0,-1,3,7,-1,-2,1,-2
,1,-1,-8,-25,-8,-6,-1,0
,-2,0,8,-7,-12,-3,-4,-1
,0,-2,-13,2,13,4,1,0
,0,1,4,-7,-9,-7,-5,-4
,0,-1,1,2,7,2,0,-1
,-1,-2,2,20,-13,-5,-2,-1
,-1,-2,1,-5,4,0,0,-1
,-3,-4,-18,-33,5,3,0,0
,-1,-1,1,19,-1,-6,-3,0
,-1,-1,2,21,9,8,0,-2
,0,-1,-6,-23,-10,-4,-1,1
,-1,0,4,-6,-25,-10,-4,0
,-1,-3,-6,16,28,7,2,1
,-1,0,7,7,-3,1,0,-2
,-1,0,1,44,12,0,-1,-1
,-1,-1,-3,-52,-17,-9,-3,-4
,-2,-2,-2,21,4,3,-2,-1
,-1,-2,-2,-15,4,-3,-1,-1
,-1,-1,0,-4,-5,-1,-1,-2
,0,1,4,25,1,-1,-1,1
,0,1,5,8,-15,-9,-2,-3
,0,-2,-15,-20,11,8,2,1
,-2,-1,4,-12,5,-2,0,0
,0,-2,3,33,-14,-5,-5,-2
,-1,-1,6,-62,1,1,0,-2
,0,-1,-1,16,11,6,1,1
,-1,0,-9,-31,-11,-4,-3,-2
,0,0,1,-5,-5,-1,-1,0
,0,-1,5,36,8,5,0,0
,-1,-1,-1,-4,-8,-6,-3,-2
,1,-1,1,-8,3,2,0,-2
,0,-1,0,11,-3,-2,1,-1
,-2,0,-1,2,-8,-8,-3,-1
,-2,-2,1,39,0,4,2,-1
,1,-2,-11,-50,-13,-3,0,-1
,-1,0,-3,-9,-2,-2,1,-1
,0,0,2,13,-6,-2,-1,-1
,-2,-1,-1,-12,12,-1,-1,-2
,-3,-1,-2,17,-2,-2,-2,1
,-2,-2,0,-11,-14,-8,-3,-2
,0,-2,-1,5,5,0,1,1
,0,-1,-1,0,0,-1,0,-1
,-2,1,4,21,-7,0,-2,-2
,-2,0,-13,-40,0,-2,0,0
,-1,-1,5,13,-2,1,-1,0
,-1,-2,-4,-13,7,2,0,-1
,0,1,1,7,0,2,0,-2
,1,-1,3,17,-5,-3,-1,0
,-1,-2,-2,-22,-3,-2,0,-1
,-2,-1,0,39,1,-1,-2,0
,-1,-1,-6,-41,-5,-4,-1,-1
,0,0,4,19,5,1,1,-1
,-1,-1,-1,-6,-7,-1,-2,-2
,1,1,4,3,11,2,2,0
,0,-3,-5,7,6,1,0,0
,-1,-1,-2,-7,-5,-5,1,-2
,0,-2,-1,2,-7,-2,-2,-2
,-2,0,-5,-2,2,-3,0,-2
,-2,-2,-1,7,-2,6,-2,0
,-1,0,0,-5,0,-4,0,-1
,-1,0,1,3,5,3,-3,0
,-2,-2,-3,-11,-2,-1,-2,1
,-1,-2,1,9,12,0,-1,-2
,-1,-2,-2,0,-7,-1,-2,-1
,-2,1,-2,-4,-7,-6,-3,-1
,0,-2,-3,-2,5,-1,-1,-1
,-2,0,-1,-4,-12,-3,1,0
,0,0,2,-1,0,3,0,-3
,-2,-3,-4,5,5,0,1,-2
,1,0,-2,-12,-7,-1,-1,-1
,-1,-1,2,-1,-2,-2,-1,-1
,-1,0,0,1,-4,-5,-2,0
,-2,-2,-2,-15,-6,-4,1,0
,-3,-2,1,10,2,5,-2,-2
,-1,1,3,17,-7,-1,-1,-1
,-2,0,-3,-18,7,0,-2,-1
,0,-2,-1,8,5,1,1,-3
,-1,-2,-2,-5,-3,-2,0,1
,0,-1,-2,-5,-2,-4,-1,-1
,-2,-1,1,10,-9,-6,-3,0
,1,1,2,-6,-3,1,0,1
,1,0,-6,-14,11,6,1,-1
,-2,-2,7,37,1,1,-1,-1
,0,-4,-12,-30,-6,-1,-3,0
,-1,-1,-1,-1,-5,-6,-3,-1
,-1,-1,2,-3,-9,-3,1,-1
,-1,-3,-5,-16,-3,-2,-3,-1
,0,-1,5,14,8,1,2,-1
,-2,-1,0,11,-1,0,0,-2
,0,-1,-2,-8,-4,-1,-1,-1
,1,-1,1,16,0,-4,0,-2
,-2,1,3,-6,2,0,-1,-2
,0,-1,-6,3,4,0,-1,-1
,1,-1,4,5,-3,-5,-3,-2
,-1,0,-3,-14,0,4,0,-1
,0,-1,3,9,-4,2,1,-1
,-1,-1,0,1,4,0,0,-1
,-1,-1,-2,-9,-6,-5,-5,-3
,-1,-1,-2,-7,-2,-2,-3,-2
,0,-2,-1,14,8,2,-1,1
,-2,-2,-2,-10,-7,-2,-2,-2
,-2,-2,1,4,-5,-3,0,-1
,1,-1,-3,-13,8,7,-2,1
,-2,-1,0,-6,-9,-4,-1,-2
,0,1,1,16,3,1,0,0
,0,0,1,3,-1,-2,0,-1
,-2,-1,-6,-9,1,-3,-1,-2
,-1,-1,-1,0,-6,-3,-2,-1
,-3,0,0,-5,-7,-3,-2,-1
,-2,-1,-2,-1,1,3,1,-1
,-2,-1,1,-1,4,0,1,1
,0,-1,-3,-1,-1,-1,-1,-1
,0,-2,-1,-3,0,-2,-1,0
,-2,-2,-2,-3,-5,-4,-1,1
,-2,-1,1,-3,-5,0,-1,-1
,-1,0,0,7,4,1,1,0
,0,-1,0,-2,5,0,-1,-1
,0,-1,0,-3,-2,1,0,-1
,1,0,-2,-16,-9,-7,-3,0
,-1,0,-1,14,1,0,-1,-1
,-1,-1,-1,-6,-3,-6,-2,-2
,-1,0,-1,0,2,8,-1,-1
,-1,0,-1,7,4,-4,0,0
,-1,-2,0,-7,-5,2,-1,-2
,-1,0,-1,0,0,0,-1,0
,0,1,0,-5,-3,-4,-2,-1
,-2,-2,-5,-4,4,-1,0,-2
,-1,-1,-1,-2,-2,-3,-2,-1
,-1,-2,2,5,0,2,0,-1
,-1,0,-5,-17,-2,1,-3,0
,1,-1,1,0,-1,4,1,0
,0,-1,-3,-5,0,-4,0,-1
,0,-2,-2,6,4,3,-1,-1
,0,-2,1,6,4,-2,1,0
,-1,-1,-1,-2,-5,-4,-1,-1
,-2,0,1,-4,1,0,0,1
,-1,-1,-2,-3,-5,3,0,-2
,0,0,0,1,-4,-3,-1,-1
,0,-1,-1,3,5,-1,-1,-1
,-2,-1,1,0,0,-3,-1,-2
,-2,-3,-4,-4,-5,-5,-1,-1
,-2,-1,-3,1,4,2,2,-1
,0,-1,2,9,-2,-2,-1,0
,0,-1,-3,-5,-7,-2,-2,0
,-1,0,3,-4,1,0,-2,0
,0,-4,-8,16,17,6,1,0
,-3,0,3,12,-1,-4,0,-1
,-1,-1,-9,-22,0,2,0,0
,0,0,0,-7,-5,-4,-3,-1
,0,-1,-1,-4,-12,-9,-3,-1
,-2,-1,0,2,1,3,-3,-1
,0,0,4,22,0,1,-1,0
,-1,-1,-9,-27,0,-1,1,0
,-1,-2,1,0,-4,-2,-2,-1
,-1,0,-4,-6,-4,-5,-3,-1
,0,0,2,8,-2,-6,-2,-2
,-1,0,-1,2,-1,6,1,-1
,0,0,1,1,6,2,1,0
,-2,-1,-2,-9,-8,-1,-1,-3
,0,-1,-2,-11,-3,-2,-2,0
,-2,-2,1,13,2,-2,0,0
,0,-2,-1,-22,-8,-4,-2,0
,-2,-1,-2,9,0,3,0,-1
,-1,-2,-1,3,2,0,0,-1
,-1,-1,-2,-11,-1,-2,-1,-1
,0,0,2,5,-7,-3,-2,-1
,-1,-1,0,-17,3,-1,2,1
,0,-2,-1,2,4,4,1,-1
,0,-1,0,9,-2,-1,-1,1
,-1,-2,-3,-1,4,-1,0,-1
,-2,0,0,-3,-9,-5,-1,-4
,-2,-1,-1,-4,-6,-9,-2,-2
,-1,2,0,4,-1,9,1,-1
,-2,0,1,0,0,-4,0,-1
,1,-1,-2,-5,-1,-3,-2,-1
,-1,-2,-4,0,-1,3,0,-2
,-2,-1,1,2,6,-2,0,-2
,-1,0,-1,5,-8,-1,-1,-1
,0,-1,-1,6,4,1,-2,-1
,-2,0,-1,-3,3,-1,-1,-2
,-1,0,0,-5,-8,-4,-2,0
,-3,-3,-2,-4,-2,-2,-2,-1
,0,4,2,-10,0,0,-1,0
,-1,0,1,13,6,3,0,0
,0,-3,1,4,7,0,2,-1
,-1,-1,-2,-1,0,-3,-2,-2
,-1,-2,-3,-7,-11,-3,-3,-2
,-1,0,-1,-4,-5,1,0,-1
,0,-1,0,0,1,-3,0,-2
,0,-2,1,-5,1,0,1,-1
,-2,-1,-2,6,-1,-5,0,-2
,-1,-2,-2,-4,-5,0,-3,-2
,-1,-2,-4,-1,-4,-1,0,-1
,-1,0,-3,2,5,0,-1,0
,-2,-1,1,-7,-2,3,-1,1
,1,-2,1,11,8,0,-1,-1
,0,1,-1,-3,-11,-4,-3,-1
,-1,1,1,4,3,1,-2,-1
,-1,-2,0,1,5,1,0,0
,-1,1,-3,-14,-7,-4,-1,0
,-1,-2,0,-4,-1,-2,-2,-2
,-1,-2,-2,1,2,3,-1,0
,0,-1,0,15,6,6,0,1
,0,0,1,-3,-3,-4,0,-1
,-1,1,-1,2,0,1,-2,-1
,-2,0,-1,-8,-7,-4,-2,-2
,0,-5,-1,-4,-3,-5,-2,-1
,0,-1,0,2,0,4,1,-1
,-3,-1,-2,-4,0,-1,0,-1
,-1,-1,-1,5,-2,0,0,0
,-1,0,-2,-1,-2,-2,1,-1
,0,-1,0,4,6,6,-2,-1
,0,-1,-1,-3,-6,-5,-3,-1
,1,-1,-1,1,2,3,2,-1
,-1,1,-2,-4,-3,-2,0,0
,-3,-2,-1,-5,-4,-4,-1,-1
,-2,0,-2,-2,2,1,-2,-1
,0,-1,-1,6,-4,0,-1,0
,-1,-1,0,9,-7,-4,0,-1
,-1,0,-1,-17,4,-1,-1,0
,0,-1,-1,11,1,2,-1,-2
,0,-1,0,-5,-1,-5,-1,-2
,-1,-1,-1,8,-1,-1,-1,-2
,-1,0,-3,-1,1,4,-1,-1
,-1,-3,1,-2,-2,-3,-3,-1
,-1,0,-3,-4,3,0,-1,0
,-1,-2,0,-2,0,-1,0,0
,0,0,-2,2,-4,-1,0,1
,-1,0,0,0,4,-1,-2,-1
,-1,-2,0,2,-6,0,-2,-1
,0,-2,-2,-10,5,0,-2,1
,-1,-1,-1,2,-3,-4,-2,0
,2,0,-1,0,-6,-2,-1,0
,-1,-2,-2,0,5,1,-1,-1
,0,-1,-2,-2,0,-6,-1,-3
,-1,0,-1,1,-4,4,1,-1
,-1,-3,-2,0,2,-2,-1,-1
,0,0,0,-6,-5,-3,1,0
,-1,0,-1,-4,-4,0,-1,-1
,1,-1,1,7,10,-2,-1,0
,-1,-2,-2,-2,-2,-1,0,-1
,-1,0,0,0,-2,-4,-2,-1
,1,0,-2,-6,-3,-1,0,-1
,-2,-1,0,-2,-8,-2,-3,-2
,-2,0,-3,-10,-1,0,0,-1
,-1,0,-2,0,0,-1,-1,1
,-1,0,2,15,-5,1,-1,-1
,-2,-1,-1,-10,-12,-2,0,-1
,-1,0,1,2,9,4,-1,-1
,-2,-2,2,7,0,1,0,-1
,-3,-2,-2,1,-3,-2,-2,-1
,0,-1,-2,1,4,0,-1,0
,-2,-1,-3,-5,-3,0,-2,-1
,0,-2,-2,-2,-3,-6,-1,-1
,-2,-2,-2,-1,-1,-2,-2,1
,0,-1,-1,-7,-8,-4,0,-1
,-1,-1,-3,-5,5,7,1,0
,-1,-2,-1,2,4,-1,-1,-1
,-1,-2,-1,-7,-5,-5,-1,-2
,0,-1,-2,-10,-12,-3,-1,0
,-1,-1,-2,-4,-4,-4,1,0
,0,1,1,14,13,2,-2,-1
,0,-2,-2,-9,1,0,-1,1
,-2,-1,-1,-1,-6,-4,1,-1
,1,-1,-1,-4,-2,0,-1,-2
,-1,-1,1,0,2,0,-2,-1
,0,-1,0,20,-2,-3,-2,-1
,0,0,-1,-4,-3,-1,0,-1
,1,1,-1,5,7,-1,-3,-1
,-2,0,0,7,-5,-4,-2,-2
,-1,-1,-1,-6,0,0,0,0
,-2,-3,-3,2,-9,1,-2,-1
,0,0,0,-2,7,-2,0,1
,-1,-1,-2,3,2,2,-1,-2
,0,-1,-1,-3,-1,5,-1,0
,-1,0,-1,-5,-2,-4,-2,-3
,-1,-2,-4,-10,-10,-4,0,-2
,-1,-3,-1,4,-6,-3,-1,0
,-3,-1,-2,-2,4,2,-1,0
,-1,1,0,-1,-2,0,0,-2
,-1,0,0,5,0,-3,-1,-2
,0,1,1,-5,2,-2,-1,1
,-1,-2,-2,-7,-1,1,0,0
,0,-1,2,6,-5,0,0,1
,0,0,-1,3,0,-2,-1,-1
,0,-2,-2,-2,6,-2,0,-1
,-1,0,-2,3,-4,-1,0,-1
,0,0,-1,-1,5,0,1,0
,-2,-1,1,-1,3,1,-1,0
,0,0,0,1,-6,0,1,0
,-3,-3,-2,5,2,0,-2,-2
,-1,-1,-2,-4,-5,0,0,-2
,0,0,-1,-2,2,0,-2,-2
,-1,0,-1,-1,-2,-3,-3,-1
,-1,-1,-1,1,0,-2,-1,0
,-2,0,-1,-2,-3,-2,0,-2
,-2,-2,-1,-4,-3,7,0,0
,-1,-1,0,10,7,-3,-1,1
,-1,-1,-1,4,0,-3,-1,-3
,0,-1,0,4,6,-1,-2,-3
,-1,0,-2,-2,-2,-3,-2,-2
,-1,-2,-2,-12,-8,-1,1,-1
,-2,-1,-2,-4,-3,-4,-2,-1
,-1,0,-2,-2,-3,-1,-1,-1
,1,0,0,2,1,-1,0,-1
,0,-1,0,7,4,4,-1,-1
,1,-1,1,4,-4,-3,-1,-1
,0,-1,-3,-6,-1,-2,-3,0
,-1,-1,0,7,-2,-6,-1,-2
,0,-1,0,1,-3,0,-1,0
,1,-1,-1,-1,2,5,1,-1
,-1,0,-2,-10,-4,-2,0,-1
,-2,-1,-2,-4,-6,0,0,-2
,-2,-1,1,12,7,-1,-2,-1
,0,0,-2,5,9,-1,0,-1
,-3,0,0,0,-4,-2,-2,0
,0,-1,-2,-13,-4,-3,-2,-2
,-1,0,0,8,7,2,-1,-1
,-3,0,-1,-15,-10,-5,-2,0
,-2,-2,2,8,2,1,-1,-1
,-1,-1,-2,-5,-4,-1,0,0
,1,-2,-1,-4,-5,-2,-1,-1
,-1,-2,-3,-1,2,-1,1,-1
,1,0,-1,-5,0,-3,-1,0
,-1,-1,1,1,-6,4,-2,-1
,1,-1,-1,-2,2,-2,0,0
,0,-1,0,2,2,0,-1,0
,-1,-1,-1,-1,0,3,0,-1
,-1,-1,1,1,-1,-2,-1,0
,-1,-1,-1,-4,-4,-1,0,-2
,-1,-1,-1,-3,0,-3,1,-1
,-1,-2,-2,1,1,-1,0,0
,0,-2,-1,2,1,-3,0,-2
,0,-3,-1,-1,-2,3,0,1
,-1,-1,-2,0,0,-3,-2,-2
,-2,0,-1,-2,-6,-1,-2,-1
,0,0,-1,-4,2,2,0,0
,-1,-2,-2,0,-5,-6,0,-1
,-1,1,6,-4,3,12,1,1
,0,0,9,4,5,0,2,-1
,-1,-1,-13,-11,-5,-3,-1,-1
,-2,-1,2,5,1,-2,-1,-1
,-3,-2,-3,1,-6,-5,-1,-1
,-2,-1,-5,1,2,0,0,-1
,-1,0,12,1,1,1,-2,0
,-1,-1,0,-1,-3,1,1,0
,0,0,-6,-4,-4,0,-2,-2
,0,0,5,-2,0,2,-1,-1
,-1,-1,5,2,-1,-2,-1,0
,0,1,5,-1,-1,0,-3,-2
,0,-2,-13,0,1,2,1,1
,-1,-3,-32,-10,5,2,0,-1
,0,1,21,3,1,0,-2,-1
,-1,-6,-53,-11,-7,-4,-1,-2
,2,1,10,7,-1,-7,0,-2
,-2,0,51,3,-5,4,-1,-3
,0,-6,-86,-14,-3,-3,0,-1
,-2,-1,11,1,0,-2,1,-1
,-1,0,28,2,-1,0,-1,-1
,-3,-2,7,-1,2,1,1,-1
,1,1,2,0,-6,-4,-1,0
,-1,-2,-16,-4,-2,-2,-1,-2
,0,0,25,6,7,1,-2,-1
,-1,-4,-33,-12,-3,-1,-2,0
,-2,-2,10,-1,-4,0,-3,0
,2,1,-20,-1,-3,-2,-2,0
,-3,-4,5,-3,-6,-2,0,-1
,-1,-3,-10,-1,-4,-2,-2,-1
,-1,-1,-16,-3,-5,-4,-1,-1
,-1,-1,7,-3,-3,1,-1,1
,-2,-2,-9,2,5,-1,-2,-1
,0,0,-4,3,2,6,-2,-1
,1,1,15,1,0,-4,-1,-1
,-2,-4,-21,-3,0,-2,-2,-1
,-1,-2,4,-2,-4,-3,-2,-2
,-2,-4,-15,-6,-6,-3,-2,-1
,-1,0,19,8,2,0,0,-1
,-1,-3,-10,-3,-2,1,1,0
,-1,2,2,-1,3,-1,-1,-2
,-1,0,12,4,-6,-7,-2,-2
,0,-2,2,-2,0,0,-1,-1
,-2,-1,0,-5,-4,-4,-1,1
,-1,-2,-1,-2,-1,2,0,1
,-1,-1,12,8,0,-3,-2,-2
,-1,-3,-11,-2,3,3,0,-1
,-1,0,4,-3,-2,-4,-1,-1
,0,-4,-12,-6,-5,1,1,-1
,-3,0,-8,-1,0,-1,0,-2
,0,0,-26,-3,4,-3,-2,-1
,-2,-6,-51,-14,-3,0,-1,0
,-2,1,11,6,-2,1,0,-1
,-1,-2,2,1,-1,-1,0,-1
,-2,0,28,3,-2,-2,-3,-2
,-2,-3,-21,-8,-6,-3,-1,-2
,0,0,6,-8,4,-2,-2,-1
,1,2,-16,1,1,2,-1,-1
,0,-1,-8,-1,-3,-1,-1,-1
,3,2,34,4,1,1,-1,-19
,-1,-4,-21,-5,-1,-3,-1,2
,-1,5,36,11,-3,1,-1,-1
,0,-1,-37,-8,5,5,0,2
,7,-1,1,3,-1,-2,-3,7
,-14,0,-54,1,2,-1,3,-3
,-1,-1,33,-5,-3,-2,1,3
,1,2,17,6,1,-1,7,-13
,5,-5,36,-2,-2,2,-6,15
,-4,1,-52,-3,-2,1,2,-21
,2,0,-37,-7,-2,-3,12,1
,5,1,43,10,0,-2,-16,7
,-3,0,30,5,-4,-5,0,1
,0,-1,10,-5,3,0,2,3
,-1,0,-38,1,4,3,0,-6
,1,0,12,-2,-1,-3,-7,2
,-5,0,20,1,-3,-3,-1,-2
,1,-1,4,4,-1,0,3,0
,-1,-5,-29,-10,-4,1,-1,-2
,-2,2,-21,-3,-1,-1,0,1
,-6,-3,6,6,-2,1,0,-5
,8,2,50,-8,-2,-2,-3,12
,-7,4,20,9,-1,0,-4,-12
,2,-2,17,-3,-5,-4,-3,1
,4,0,22,1,-2,-3,2,8
,0,-1,-17,-8,-1,-6,1,-2
,3,-2,-13,-7,1,5,1,2
,-5,-3,-10,0,-1,3,20,1
,6,2,14,0,0,1,-12,1
,-2,-8,-10,3,-6,1,-8,1
,-3,5,16,-2,5,-2,-4,-3
,6,-3,-35,-8,-4,1,12,0
,1,1,-14,-6,-4,-5,-1,-1
,-3,-2,11,-2,-3,-5,-8,-4
,3,5,-3,0,-1,-2,-1,17
,1,-2,-44,-11,-8,-2,-7,-33
,-3,-5,3,-5,4,2,4,0
,-5,1,26,6,2,1,-5,-4
,6,1,8,6,2,-1,-6,3
,-4,-3,35,-5,-5,-3,12,3
,0,1,-17,1,1,0,0,0
,3,3,30,12,2,3,-9,-2
,-2,-2,1,2,-1,-1,-10,-2
,-2,-3,11,-6,-6,-7,-8,3
,4,-1,16,-2,-4,-1,16,-2
,-2,-2,-22,-6,-2,2,-22,0
,1,-5,-25,0,2,6,19,3
,4,2,-4,1,3,-4,-10,12
,-3,1,4,-2,-1,0,3,-27
,4,-7,-10,-7,-7,-2,3,3
,-16,1,5,5,-2,-3,-10,-5
,-2,-2,-9,6,4,-4,-11,2
,2,-4,-76,-11,-2,1,-11,-1
,1,4,46,-6,-8,-8,9,-7
,-7,4,30,11,4,0,-10,7
,-2,3,23,9,0,1,10,-3
,3,-1,9,-7,6,19,5,4
,-3,-5,-37,-7,-5,-2,-9,-2
,5,-3,1,0,0,-2,5,1
,-2,4,34,5,1,-6,-5,-1
,1,-2,1,-2,-2,-15,-8,-2
,-5,-3,-18,0,-1,4,2,-4
,0,-4,10,0,6,-3,3,1
,0,1,-24,-3,-3,4,5,-6
,-1,-7,-11,0,-1,-6,-7,1
,-3,-4,19,1,-1,-8,-15,5
,2,-3,-50,-8,-7,-7,-12,-1
,0,-1,13,0,6,4,9,-4
,0,1,-21,1,3,7,9,1
,-2,0,0,1,-1,1,-1,4
,-2,1,15,0,-5,-5,-7,-4
,-2,-5,-31,-6,-1,-3,1,5
,0,2,10,3,-1,0,3,0
,-1,-4,4,-4,5,2,7,1
,-3,-1,3,-2,-5,-4,-4,-1
,-2,0,-1,2,-1,-3,3,1
,-1,-1,14,-1,0,-1,8,0
,-2,-2,13,1,-6,2,-5,-2
,-1,-1,-10,-2,3,-2,-1,0
,-1,-3,-21,-5,-3,-1,-1,1
,1,2,32,2,-4,1,6,10
,-3,-3,-70,-4,5,-4,1,-17
,-2,-2,-16,1,-5,-6,0,-4
,0,2,18,-2,-4,-1,-6,2
,0,-1,-25,-6,-2,0,10,0
,-1,-1,6,2,1,3,13,-2
,0,1,4,3,3,13,1,1
,-1,-4,-28,-6,-5,-4,-7,0
,-2,-3,-10,-2,-4,-7,-8,-2
,-2,-1,8,-3,0,-2,-3,0
,-1,-1,-8,2,2,-5,-1,-3
,-1,0,19,3,2,3,-2,-1
,-2,-1,7,-6,-3,-4,3,-3
,0,-3,-8,-4,-6,-1,-5,0
,-2,0,8,0,-4,-3,6,1
,-2,0,-2,3,1,4,-2,0
,-3,-3,-11,-1,1,1,0,-2
,0,1,14,2,-3,-4,1,2
,-1,-2,-14,-4,-3,1,-1,-1
,1,0,18,0,-2,-1,1,1
,-2,-4,-23,-4,0,-7,-4,-3
,-2,-1,8,1,-5,4,1,-1
,1,-1,0,-4,-2,0,-4,-1
,-1,-2,-5,1,0,-2,-1,0
,-2,1,5,1,0,-2,-3,-2
,-3,-3,-17,-5,-4,-4,-2,0
,0,1,2,-1,-9,-4,0,0
,-1,2,6,4,5,3,1,-1
,0,0,3,-1,3,1,-1,-1
,0,-3,-7,-3,1,3,-1,-1
,-3,2,21,0,2,-1,-3,-2
,0,-2,-4,-1,-1,-1,1,0
,0,-1,2,-1,-2,-2,-3,-1
,-1,-4,-9,1,3,4,-2,-2
,-1,-4,-10,0,5,1,-2,0
,-1,-1,9,2,-1,1,-1,-2
,0,1,2,-1,-4,-1,-1,-2
,0,0,3,-1,-1,-5,0,-2
,-3,-3,-11,-4,-5,-3,-2,0
,0,-2,-5,-2,-3,-3,3,0
,-1,-1,3,3,2,3,-1,0
,-1,0,7,1,9,-1,1,0
,-1,-1,-11,-1,3,-1,0,-2
,-1,-1,-1,-4,-6,-5,-1,0
,-1,0,6,1,-2,0,-1,-1
,0,0,-6,0,0,-3,-2,0
,-1,-4,-6,-3,-1,-2,-3,-1
,-1,2,28,1,0,2,-1,0
,0,-2,-27,-5,-3,-6,0,-2
,0,-2,4,-2,-4,-1,-3,-2
,-2,-1,1,3,1,6,1,-1
,-1,0,8,0,-2,-6,0,-1
,1,1,1,-3,6,-3,-1,-1
,-2,-1,-4,-2,-5,0,0,0
,-1,-3,6,1,-4,-4,-3,-1
,-2,-3,-13,-4,2,0,-2,-2
,1,0,1,0,-4,-3,-2,-1
,-1,-2,-4,-4,-2,-2,-2,-2
,1,-1,3,1,-6,-3,2,0
,-2,1,-3,0,5,0,0,-1
,-1,-1,9,1,-2,1,0,-1
,0,1,-20,-2,2,-2,-1,0
,-2,-2,-5,-3,-1,3,1,-1
,0,-2,-3,-1,0,4,0,0
,0,2,12,0,1,2,0,1
,-1,-4,-25,-3,2,-1,-2,-2
,-1,-2,1,-1,-9,-8,-3,-2
,-2,-1,28,3,2,0,0,-1
,-1,0,-7,-3,-1,2,0,-1
,-1,1,-25,-5,-4,0,-3,-1
,-2,-5,-11,1,3,1,1,1
,-2,1,2,-4,-11,-4,-6,0
,0,0,-2,-2,-2,2,0,2
,-1,-2,-35,-2,0,2,0,-3
,-2,-1,18,-1,1,-3,0,-1
,1,4,18,-1,-1,5,0,-1
,-1,-4,0,-3,-2,-1,-5,-2
,0,0,14,3,-3,-5,2,-2
,-3,-4,-18,-5,-1,-3,9,1
,-3,-1,34,4,1,-1,-7,1
,-2,2,-8,0,0,1,5,-1
,2,-2,6,-6,-4,-4,-10,-3
,0,1,14,2,-4,1,-8,5
,-3,0,-12,-4,0,-6,-9,1
,1,4,33,5,4,4,19,-1
,0,-6,-20,-11,-2,4,0,-1
,-1,-1,5,-2,-5,-2,-1,-4
,0,-1,-19,1,2,-1,-2,0
,-2,0,29,1,-3,-14,-12,-3
,0,-1,2,5,-6,6,2,0
,0,1,29,1,-2,-3,1,-1
,-1,-4,-34,-6,6,6,7,-1
,-2,-1,-35,-3,-7,-1,-3,2
,0,-1,19,5,6,-1,0,-2
,0,1,-18,0,-5,-3,-3,-1
,-3,-3,48,0,-3,-4,3,1
,-1,3,23,3,2,4,12,-2
,0,1,3,3,-2,2,7,-1
,0,-2,0,0,6,3,-2,0
,-1,-1,-6,0,-2,-6,2,-3
,-4,-4,-8,-5,2,-6,-21,2
,-2,1,13,0,-7,-1,-2,0
,0,-3,-26,-3,-3,-2,-9,-2
,-1,-2,-18,-5,-1,-5,-1,0
,-1,-3,-16,0,-1,3,4,-5
,-3,-2,2,-1,0,-1,4,-1
,-1,0,13,-3,-5,-7,2,-4
,-2,-6,1,-3,-2,-3,-2,-3
,0,-2,-13,4,4,17,9,2
,2,6,65,4,-3,-3,1,-3
,-3,-11,-114,-14,0,-6,0,-3
,1,0,-8,-1,-1,8,10,3
,-1,1,28,1,2,-4,10,-1
,1,0,3,-2,3,1,-13,-2
,-3,-3,-14,0,-2,5,-11,-1
,1,3,7,1,0,-7,-1,-3
,-2,-2,41,0,-1,-5,2,-1
,-3,0,8,1,-4,-4,-4,-1
,1,1,-6,1,-1,8,1,-2
,-2,2,5,6,3,-3,-6,0
,0,3,1,-7,1,4,10,-1
,-2,-1,6,0,-3,-1,3,0
,-1,-4,-18,-6,-4,-5,-12,-1
,0,-1,3,1,0,7,0,0
,1,-1,18,4,4,4,-3,2
,-1,0,-10,-4,3,0,-3,-4
,1,-1,17,3,-1,5,1,11
,3,-1,-8,-1,2,2,-17,-19
,1,1,19,1,2,12,-1,2
,-3,-5,-8,2,-1,-4,-14,-3
,1,2,17,0,1,2,8,4
,-2,-2,-28,-2,-7,-10,-5,3
,-1,-1,0,-4,-4,-10,-5,-3
,-2,1,-2,0,0,-5,-16,2
,-2,0,-1,1,2,-3,-11,-6
,-1,-1,4,1,0,-5,7,1
,-1,-1,7,2,1,-18,2,-3
,0,2,-3,-2,5,15,3,1
,2,-3,-1,-4,-5,-13,-25,0
,-11,1,39,1,-6,-4,12,0
,4,2,-25,1,3,13,2,-9
,-2,-1,7,-3,-5,-8,-9,-1
,-5,-1,-1,-3,-8,-30,42,-3
,16,3,2,8,11,29,-2,11
,-29,-4,-10,-5,-6,-14,-27,-8
,16,1,-3,-2,2,12,-11,9
,4,5,6,6,7,24,36,25
,24,-3,-7,-3,-7,-27,-79,40
,-72,-6,3,7,9,-2,28,-65
,24,-1,-1,2,4,26,76,12
,-20,-1,-9,-3,-4,-16,-43,11
,-39,-5,6,-3,-8,-5,-48,-30
,91,-5,-8,-3,3,20,-9,42
,-13,-2,-17,0,-1,-46,-28,-8
,-40,-16,4,-6,-9,14,55,-72
,-55,-4,-11,1,0,-55,121,83
,68,8,6,3,8,62,-50,19
,-2,3,16,6,-3,-38,9,-100
,-46,0,-2,1,-7,-43,83,46
,-17,-16,-73,-13,1,38,-128,-45
,-9,3,2,-5,-4,48,127,37
,49,-2,17,10,12,15,-70,-16
,-12,6,17,11,6,24,-68,-62
,-65,-7,-70,-22,-20,-90,-22,-75
,-32,1,-5,2,8,-2,50,73
,18,0,55,7,-12,-52,7,-73
,-17,-8,10,-6,5,47,1,71
,50,-2,35,29,17,42,76,127
,55,-1,15,-8,-12,-61,90,-58
,-8,4,-14,-15,-9,-5,-82,-61
,-53,-24,40,7,-9,-113,-105,-23
,-3,26,33,20,25,75,-31,50
,-34,-42,-101,-52,-41,-109,-3,-17
,52,26,98,23,19,34,127,28
,4,18,14,-1,-12,-10,-55,-22
,-25,-28,-43,-9,10,-13,10,-54
,88,46,78,4,0,-34,95,55
,-26,-17,-38,-16,-15,9,84,69
,-38,27,64,23,32,104,71,-55
,40,-24,-9,4,33,87,59,93
,-9,-17,-24,-2,-26,-72,23,-43
,-27,-12,45,-7,-2,49,97,91
,92,23,-3,-4,-23,-118,-123,3
,71,39,60,4,9,-40,100,-21
,59,6,-20,7,34,127,-38,-46
,-50,-15,9,-6,-10,17,17,-86
,-33,-37,-94,-19,-21,-47,-6,-88
,22,21,-38,-10,0,11,-21,5
,10,25,94,21,30,127,32,60
,-14,13,-41,-10,-15,6,97,19
,17,-19,-46,-12,6,-70,-113,93
,46,15,20,15,18,30,-83,-60
,-8,16,28,24,-23,-42,86,19
,-46,-44,-38,-55,-5,26,-81,96
,-2,15,93,15,-12,-15,4,-14
,-48,6,19,-7,-24,-90,-84,-83
,38,57,-19,17,14,74,89,-69
,-47,-24,-71,-25,-19,-79,82,69
,-69,-46,-14,-15,-31,-100,-72,-30
,-17,6,5,23,11,32,-116,-14
,-32,-3,-8,-17,-7,-64,48,-18
,2,8,71,19,14,79,-128,50
,-22,-8,-110,-31,-13,-86,74,72
,-52,-41,-11,-12,-24,89,106,-81
,-43,-39,22,7,27,27,-128,-109
,80,-17,-18,8,3,13,71,-128
,-9,1,-16,3,-11,-13,-79,16
,-39,-31,-36,-26,-3,-82,22,61
,15,-1,32,3,10,127,55,4
,-26,-18,-29,-18,-3,23,11,50
,-29,-16,-6,-12,-24,-33,-112,35
,120,30,-46,1,5,22,81,-56
,35,-3,6,8,26,68,62,72
,-43,18,53,17,4,25,36,3
,-29,-6,-8,-11,-9,-60,127,64
,53,51,30,3,-7,-8,-106,-99
,56,7,-26,-2,0,53,127,8
,-73,-40,-31,-24,-22,-32,-19,-108
,-33,12,30,18,21,59,48,39
,16,1,16,16,8,-5,-99,-25
,30,27,63,14,-3,62,8,10
,45,-13,14,-7,10,-42,-104,32
,-10,1,-5,-5,-27,-118,-58,-46
,-47,9,16,-10,3,56,2,-7
,1,7,57,9,11,-48,-29,-29
,-48,3,-59,7,-5,51,116,65
,-55,-52,-1,-13,-13,12,-21,-40
,-21,22,13,10,2,-50,-119,-31
,-55,-21,-34,-1,2,-1,-90,50
,50,19,20,8,12,24,77,-85
,-68,1,-50,-17,-10,-22,64,74
,4,-21,35,12,-6,9,82,53
,21,16,9,-7,21,119,-37,39
,52,20,-71,-10,-25,-113,-64,33
,-79,-15,8,7,1,93,-51,-48
,120,27,37,6,17,-49,118,-1
,73,2,3,4,12,-46,0,37
,9,-2,-8,4,-15,-57,-68,-51
,9,26,0,3,0,98,12,-17
,-13,-3,33,0,-4,-69,55,49
,81,32,64,14,15,33,3,-27
,-36,-25,-40,-23,-7,1,31,100
,-9,-9,-22,-11,-6,-6,29,-9
,-31,-7,43,1,-21,-93,-53,-17
,53,1,-25,-7,-1,-41,-25,-22
,-61,-9,35,-1,1,72,54,49
,-27,-39,-86,-22,-33,-74,32,36
,-49,-10,53,6,9,3,-84,22
,-49,-14,-83,-14,9,-2,43,22
,-38,-1,-27,-12,-10,-60,-74,-27
